hotint output data
notes: time (s), wave elevation (m), surge (m), heave (m), pitch (rads), flap 1 pitch (rads), flap 2 pitch (rads)
amplitude: -0.01m, period: 9s
            0            -0 -6.50417e-008            -9 -7.25966e-009 -9.59504e-008  4.65878e-008
         0.05  5.81658e-007 -3.32865e-007            -9 -3.68234e-008  -4.7453e-007   2.2958e-007
          0.1  2.32522e-006 -8.91115e-007            -9 -9.74659e-008 -1.21585e-006  5.85404e-007
         0.15  5.22642e-006 -1.76898e-006            -9 -1.91043e-007 -2.29821e-006  1.10027e-006
          0.2  9.27821e-006 -2.99425e-006            -9 -3.19155e-007 -3.69885e-006  1.76004e-006
         0.25  1.44707e-005 -4.59321e-006      -9.00001 -4.83138e-007   -5.394e-006  2.55041e-006
          0.3  2.07912e-005 -6.59053e-006      -9.00001 -6.84058e-007  -7.3593e-006  3.45706e-006
         0.35  2.82242e-005 -9.00913e-006      -9.00001 -9.22703e-007 -9.57009e-006  4.46585e-006
          0.4  3.67516e-005 -1.18702e-005      -9.00001 -1.19958e-006 -1.20013e-005  5.56293e-006
         0.45  4.63525e-005  -1.5193e-005      -9.00002 -1.51491e-006 -1.46278e-005  6.73483e-006
          0.5  5.70034e-005 -1.89947e-005      -9.00002 -1.86864e-006 -1.74248e-005  7.96865e-006
         0.55  6.86779e-005 -2.32905e-005      -9.00002 -2.26042e-006 -2.03683e-005  9.25222e-006
          0.6  8.13473e-005 -2.80935e-005      -9.00003 -2.68964e-006 -2.34348e-005  1.05741e-005
         0.65  9.49804e-005 -3.34145e-005      -9.00003 -3.15544e-006 -2.66022e-005  1.19239e-005
          0.7   0.000109543 -3.92624e-005      -9.00004 -3.65668e-006 -2.98494e-005   1.3292e-005
         0.75      0.000125 -4.56436e-005      -9.00004   -4.192e-006 -3.31567e-005  1.46697e-005
          0.8   0.000141312 -5.25628e-005      -9.00005 -4.75979e-006 -3.65061e-005  1.60496e-005
         0.85   0.000158438 -6.00226e-005      -9.00005 -5.35825e-006 -3.98809e-005  1.74251e-005
          0.9   0.000176336 -6.80235e-005      -9.00006 -5.98536e-006 -4.32663e-005  1.87906e-005
         0.95   0.000194959 -7.65643e-005      -9.00006 -6.63895e-006 -4.66488e-005  2.01416e-005
            1   0.000214263 -8.56422e-005      -9.00007 -7.31666e-006 -5.00163e-005  2.14743e-005
         1.05   0.000234196 -9.52525e-005      -9.00008 -8.01598e-006 -5.33584e-005  2.27858e-005
          1.1   0.000254708  -0.000105389      -9.00009 -8.73428e-006 -5.66661e-005  2.40741e-005
         1.15   0.000275747  -0.000116045      -9.00009 -9.46881e-006 -5.99313e-005  2.53377e-005
          1.2   0.000297258  -0.000127212       -9.0001 -1.02167e-005 -6.31474e-005  2.65757e-005
         1.25   0.000319185  -0.000138879      -9.00011  -1.0975e-005 -6.63086e-005  2.77877e-005
          1.3   0.000341471  -0.000151035      -9.00012 -1.17408e-005   -6.941e-005  2.89737e-005
         1.35   0.000364058  -0.000163671      -9.00012 -1.25109e-005 -7.24473e-005   3.0134e-005
          1.4   0.000386884  -0.000176772      -9.00013 -1.32822e-005 -7.54167e-005   3.1269e-005
         1.45    0.00040989  -0.000190325      -9.00014 -1.40517e-005 -7.83148e-005  3.23793e-005
          1.5   0.000433013  -0.000204318      -9.00015  -1.4816e-005 -8.11386e-005  3.34653e-005
         1.55    0.00045619  -0.000218736      -9.00016 -1.55722e-005 -8.38849e-005  3.45276e-005
          1.6   0.000479357  -0.000233564      -9.00017 -1.63169e-005 -8.65508e-005  3.55666e-005
         1.65    0.00050245  -0.000248787      -9.00017  -1.7047e-005 -8.91331e-005  3.65822e-005
          1.7   0.000525404   -0.00026439      -9.00018 -1.77593e-005 -9.16284e-005  3.75746e-005
         1.75   0.000548154  -0.000280357      -9.00019 -1.84507e-005 -9.40332e-005  3.85433e-005
          1.8   0.000570634  -0.000296672       -9.0002 -1.91182e-005 -9.63435e-005  3.94876e-005
         1.85   0.000592778  -0.000313319      -9.00021 -1.97586e-005 -9.85552e-005  4.04065e-005
          1.9   0.000614521  -0.000330281      -9.00022 -2.03689e-005  -0.000100664  4.12988e-005
         1.95   0.000635796  -0.000347543      -9.00023 -2.09462e-005  -0.000102664  4.21628e-005
            2   0.000656539  -0.000365086      -9.00023 -2.14875e-005  -0.000104551  4.29967e-005
         2.05   0.000676683  -0.000382893      -9.00024 -2.19901e-005  -0.000106319  4.37982e-005
          2.1   0.000696165  -0.000400947      -9.00025  -2.2451e-005  -0.000107963  4.45649e-005
         2.15   0.000714921   -0.00041923      -9.00026 -2.28677e-005  -0.000109477  4.52942e-005
          2.2   0.000732887  -0.000437724      -9.00026 -2.32374e-005  -0.000110854  4.59832e-005
         2.25       0.00075   -0.00045641      -9.00027 -2.35577e-005  -0.000112089  4.66288e-005
          2.3     0.0007662   -0.00047527      -9.00028 -2.38261e-005  -0.000113175   4.7228e-005
         2.35   0.000781425  -0.000494284      -9.00029 -2.40402e-005  -0.000114106  4.77776e-005
          2.4   0.000795618  -0.000513432      -9.00029 -2.41979e-005  -0.000114876  4.82743e-005
         2.45   0.000808719  -0.000532696       -9.0003  -2.4297e-005   -0.00011548  4.87149e-005
          2.5   0.000820673  -0.000552054       -9.0003 -2.43354e-005   -0.00011591  4.90961e-005
         2.55   0.000831425  -0.000571487      -9.00031 -2.43113e-005  -0.000116163  4.94148e-005
          2.6   0.000840923  -0.000590972      -9.00031 -2.42229e-005  -0.000116232  4.96678e-005
         2.65   0.000849114  -0.000610489      -9.00032 -2.40686e-005  -0.000116113  4.98522e-005
          2.7   0.000855951  -0.000630017      -9.00032 -2.38469e-005  -0.000115801  4.99651e-005
         2.75   0.000861385  -0.000649532      -9.00033 -2.35564e-005  -0.000115291  5.00037e-005
          2.8   0.000865372  -0.000669013      -9.00033 -2.31959e-005  -0.000114579  4.99654e-005
         2.85   0.000867868  -0.000688437      -9.00033 -2.27644e-005  -0.000113661  4.98477e-005
          2.9   0.000868834   -0.00070778      -9.00033 -2.22609e-005  -0.000112535  4.96483e-005
         2.95   0.000868232   -0.00072702      -9.00033 -2.16847e-005  -0.000111196  4.93651e-005
            3   0.000866025  -0.000746132      -9.00034 -2.10353e-005  -0.000109641  4.89961e-005
         3.05   0.000862182  -0.000765092      -9.00034 -2.03121e-005   -0.00010787  4.85395e-005
          3.1   0.000856672  -0.000783876      -9.00033 -1.95149e-005  -0.000105878  4.79938e-005
         3.15   0.000849468  -0.000802458      -9.00033 -1.86436e-005  -0.000103665  4.73575e-005
          3.2   0.000840545  -0.000820813      -9.00033 -1.76982e-005  -0.000101229  4.66294e-005
         3.25   0.000829881  -0.000838915      -9.00033  -1.6679e-005 -9.85692e-005  4.58086e-005
          3.3   0.000817459  -0.000856739      -9.00033 -1.55863e-005 -9.56851e-005  4.48943e-005
         3.35   0.000803263  -0.000874257      -9.00032 -1.44208e-005 -9.25765e-005  4.38859e-005
          3.4   0.000787279  -0.000891444      -9.00032 -1.31831e-005 -8.92438e-005  4.27832e-005
         3.45     0.0007695  -0.000908271      -9.00031 -1.18741e-005  -8.5688e-005   4.1586e-005
          3.5   0.000749919  -0.000924711       -9.0003 -1.04949e-005 -8.19102e-005  4.02945e-005
         3.55   0.000728533  -0.000940736       -9.0003  -9.0468e-006 -7.79125e-005  3.89092e-005
          3.6   0.000705342  -0.000956318      -9.00029 -7.53107e-006 -7.36971e-005  3.74307e-005
         3.65   0.000680351  -0.000971429      -9.00028 -5.94934e-006  -6.9267e-005  3.58599e-005
          3.7   0.000653567  -0.000986039      -9.00027 -4.30333e-006 -6.46256e-005  3.41981e-005
         3.75      0.000625   -0.00100012      -9.00026 -2.59495e-006 -5.97771e-005  3.24466e-005
          3.8   0.000594664   -0.00101364      -9.00025 -8.26255e-007 -5.47259e-005  3.06073e-005
         3.85   0.000562576   -0.00102658      -9.00024  1.00052e-006 -4.94773e-005   2.8682e-005
          3.9   0.000528758   -0.00103889      -9.00023  2.88298e-006 -4.40368e-005  2.66731e-005
         3.95   0.000493232   -0.00105056      -9.00021   4.8186e-006 -3.84108e-005   2.4583e-005
            4   0.000456027   -0.00106155       -9.0002  6.80466e-006 -3.26058e-005  2.24145e-005
         4.05   0.000417173   -0.00107184      -9.00018  8.83831e-006  -2.6629e-005  2.01705e-005
          4.1   0.000376704   -0.00108139      -9.00017  1.09166e-005 -2.04883e-005  1.78542e-005
         4.15   0.000334659   -0.00109017      -9.00015  1.30363e-005 -1.41916e-005  1.54692e-005
          4.2   0.000291076   -0.00109816      -9.00013  1.51941e-005 -7.74748e-006   1.3019e-005
         4.25   0.000246002   -0.00110532      -9.00011  1.73867e-005 -1.16498e-006  1.05075e-005
          4.3   0.000199481   -0.00111162      -9.00009  1.96105e-005  5.54659e-006  7.93872e-006
         4.35   0.000151566   -0.00111705      -9.00007  2.18618e-005  1.23775e-005  5.31701e-006
          4.4   0.000102309   -0.00112156      -9.00005  2.41369e-005  1.93177e-005  2.64675e-006
         4.45  5.17676e-005   -0.00112513      -9.00003  2.64318e-005  2.63568e-005 -6.74472e-008
          4.5  8.84344e-018   -0.00112773      -9.00001  2.87426e-005   3.3484e-005  -2.8208e-006
         4.55 -5.29309e-005   -0.00112933      -8.99999   3.1065e-005  4.06884e-005 -5.60838e-006
          4.6   -0.00010696   -0.00112991      -8.99996  3.33951e-005  4.79585e-005 -8.42509e-006
         4.65  -0.000162019   -0.00112945      -8.99994  3.57283e-005  5.52828e-005 -1.12657e-005
          4.7  -0.000218038    -0.0011279      -8.99991  3.80605e-005  6.26494e-005 -1.41249e-005
         4.75  -0.000274943   -0.00112526      -8.99989  4.03872e-005  7.00461e-005 -1.69971e-005
          4.8  -0.000332659   -0.00112149      -8.99986  4.27038e-005  7.74606e-005 -1.98768e-005
         4.85  -0.000391107   -0.00111658      -8.99983  4.50059e-005  8.48802e-005 -2.27582e-005
          4.9  -0.000450208   -0.00111049      -8.99981  4.72888e-005   9.2292e-005 -2.56356e-005
         4.95  -0.000509878    -0.0011032      -8.99978  4.95479e-005  9.96832e-005 -2.85031e-005
            5  -0.000570034   -0.00109471      -8.99975  5.17784e-005    0.00010704 -3.13548e-005
         5.05  -0.000630588   -0.00108497      -8.99972  5.39758e-005    0.00011435 -3.41846e-005
          5.1  -0.000691452   -0.00107399      -8.99969  5.61353e-005   0.000121599 -3.69867e-005
         5.15  -0.000752537   -0.00106173      -8.99966  5.82521e-005   0.000128774 -3.97549e-005
          5.2  -0.000813751   -0.00104818      -8.99963  6.03216e-005   0.000135861 -4.24834e-005
         5.25     -0.000875   -0.00103334       -8.9996  6.23389e-005   0.000142846  -4.5166e-005
          5.3  -0.000936191   -0.00101717      -8.99957  6.42993e-005   0.000149715  -4.7797e-005
         5.35  -0.000997227  -0.000999672      -8.99954  6.61982e-005   0.000156455 -5.03705e-005
          5.4   -0.00105801  -0.000980835       -8.9995  6.80308e-005   0.000163052 -5.28807e-005
         5.45   -0.00111845  -0.000960647      -8.99947  6.97926e-005   0.000169493  -5.5322e-005
          5.5   -0.00117844    -0.0009391      -8.99944  7.14788e-005   0.000175764 -5.76889e-005
         5.55   -0.00123789  -0.000916189      -8.99941  7.30851e-005   0.000181851 -5.99762e-005
          5.6    -0.0012967  -0.000891908      -8.99938  7.46068e-005   0.000187742 -6.21786e-005
         5.65   -0.00135476  -0.000866256      -8.99934  7.60397e-005   0.000193423 -6.42913e-005
          5.7   -0.00141198  -0.000839231      -8.99931  7.73793e-005   0.000198882 -6.63094e-005
         5.75   -0.00146825  -0.000810833      -8.99928  7.86213e-005   0.000204105 -6.82285e-005
          5.8   -0.00152349  -0.000781067      -8.99925  7.97617e-005   0.000209081 -7.00444e-005
         5.85   -0.00157758  -0.000749936      -8.99921  8.07964e-005   0.000213797  -7.1753e-005
          5.9   -0.00163044  -0.000717447      -8.99918  8.17214e-005   0.000218241 -7.33507e-005
         5.95   -0.00168196  -0.000683611      -8.99915  8.25329e-005   0.000222402  -7.4834e-005
            6   -0.00173205  -0.000648436      -8.99912  8.32271e-005   0.000226268 -7.61998e-005
         6.05   -0.00178061  -0.000611938      -8.99909  8.38006e-005   0.000229828 -7.74454e-005
          6.1   -0.00182755  -0.000574131      -8.99906  8.42498e-005   0.000233072 -7.85682e-005
         6.15   -0.00187277  -0.000535034      -8.99903  8.45715e-005   0.000235989  -7.9566e-005
          6.2   -0.00191618  -0.000494666        -8.999  8.47624e-005    0.00023857 -8.04371e-005
         6.25   -0.00195769  -0.000453049      -8.99897  8.48197e-005   0.000240805   -8.118e-005
          6.3   -0.00199722  -0.000410208      -8.99894  8.47405e-005   0.000242684 -8.17936e-005
         6.35   -0.00203467  -0.000366172      -8.99891  8.45221e-005   0.000244201 -8.22769e-005
          6.4   -0.00206996  -0.000320968      -8.99889  8.41622e-005   0.000245345 -8.26297e-005
         6.45   -0.00210302  -0.000274629      -8.99886  8.36583e-005    0.00024611 -8.28519e-005
          6.5   -0.00213375  -0.000227189      -8.99884  8.30085e-005    0.00024649 -8.29435e-005
         6.55   -0.00216209  -0.000178685      -8.99881  8.22108e-005   0.000246476 -8.29053e-005
          6.6   -0.00218795  -0.000129157      -8.99879  8.12637e-005   0.000246064 -8.27382e-005
         6.65   -0.00221127 -7.86461e-005      -8.99876  8.01656e-005   0.000245248 -8.24434e-005
          6.7   -0.00223197 -2.71962e-005      -8.99874  7.89153e-005   0.000244023 -8.20224e-005
         6.75      -0.00225  2.51458e-005      -8.99872  7.75118e-005   0.000242386 -8.14772e-005
          6.8   -0.00226529   7.8331e-005       -8.9987  7.59543e-005   0.000240332   -8.081e-005
         6.85   -0.00227777   0.000132308      -8.99868  7.42424e-005    0.00023786 -8.00231e-005
          6.9    -0.0022874   0.000187024      -8.99867  7.23757e-005   0.000234967 -7.91193e-005
         6.95   -0.00229412   0.000242421      -8.99865  7.03543e-005   0.000231652 -7.81015e-005
            7   -0.00229788   0.000298443      -8.99864  6.81782e-005   0.000227913 -7.69731e-005
         7.05   -0.00229865   0.000355028      -8.99862  6.58482e-005   0.000223751 -7.57374e-005
          7.1   -0.00229637   0.000412114      -8.99861  6.33648e-005   0.000219167 -7.43982e-005
         7.15   -0.00229101   0.000469636       -8.9986  6.07291e-005   0.000214161 -7.29591e-005
          7.2   -0.00228254   0.000527528      -8.99859  5.79424e-005   0.000208737 -7.14243e-005
         7.25   -0.00227092    0.00058572      -8.99858  5.50064e-005   0.000202895 -6.97979e-005
          7.3   -0.00225615   0.000644142      -8.99858  5.19227e-005   0.000196641 -6.80842e-005
         7.35   -0.00223819   0.000702722      -8.99857  4.86937e-005   0.000189978 -6.62876e-005
          7.4   -0.00221703   0.000761384      -8.99857  4.53217e-005   0.000182911 -6.44126e-005
         7.45   -0.00219265   0.000820053      -8.99857  4.18093e-005   0.000175446 -6.24639e-005
          7.5   -0.00216506   0.000878652      -8.99857  3.81597e-005   0.000167588 -6.04461e-005
         7.55   -0.00213425   0.000937102      -8.99857  3.43761e-005   0.000159346 -5.83639e-005
          7.6   -0.00210023   0.000995322      -8.99857   3.0462e-005   0.000150726 -5.62221e-005
         7.65   -0.00206299    0.00105323      -8.99858  2.64213e-005   0.000141737 -5.40255e-005
          7.7   -0.00202256    0.00111074      -8.99859  2.22582e-005   0.000132389 -5.17789e-005
         7.75   -0.00197895    0.00116778       -8.9986   1.7977e-005   0.000122691 -4.94869e-005
          7.8   -0.00193218    0.00122426      -8.99861  1.35825e-005   0.000112653 -4.71544e-005
         7.85   -0.00188227    0.00128008      -8.99862  9.07972e-006   0.000102287 -4.47861e-005
          7.9   -0.00182927    0.00133517      -8.99863  4.47381e-006  9.16053e-005 -4.23864e-005
         7.95    -0.0017732    0.00138944      -8.99865 -2.29634e-007  8.06194e-005 -3.99601e-005
            8    -0.0017141    0.00144281      -8.99867 -5.02482e-006  6.93427e-005 -3.75116e-005
         8.05   -0.00165202    0.00149518      -8.99869 -9.90567e-006  5.77889e-005 -3.50452e-005
          8.1   -0.00158702    0.00154646      -8.99871 -1.48659e-005  4.59724e-005 -3.25651e-005
         8.15   -0.00151914    0.00159658      -8.99873 -1.98988e-005   3.3908e-005 -3.00754e-005
          8.2   -0.00144845    0.00164544      -8.99876 -2.49977e-005  2.16111e-005 -2.75801e-005
         8.25     -0.001375    0.00169295      -8.99879 -3.01554e-005  9.09791e-006 -2.50828e-005
          8.3   -0.00129887    0.00173904      -8.99882 -3.53647e-005  -3.6152e-006 -2.25872e-005
         8.35   -0.00122013    0.00178361      -8.99885 -4.06181e-005 -1.65111e-005 -2.00966e-005
          8.4   -0.00113886    0.00182658      -8.99888 -4.59077e-005 -2.95724e-005 -1.76142e-005
         8.45   -0.00105514    0.00186786      -8.99892 -5.12257e-005 -4.27808e-005  -1.5143e-005
          8.5  -0.000969057    0.00190738      -8.99895 -5.65638e-005  -5.6118e-005 -1.26856e-005
         8.55  -0.000880698    0.00194504      -8.99899 -6.19138e-005  -6.9565e-005 -1.02446e-005
          8.6   -0.00079016    0.00198078      -8.99903 -6.72672e-005 -8.31023e-005 -7.82221e-006
         8.65  -0.000697541    0.00201451      -8.99907 -7.26151e-005 -9.67104e-005 -5.42045e-006
          8.7  -0.000602944    0.00204615      -8.99912 -7.79489e-005  -0.000110369 -3.04108e-006
         8.75  -0.000506474    0.00207563      -8.99916 -8.32594e-005  -0.000124057 -6.85615e-007
          8.8  -0.000408241    0.00210288      -8.99921 -8.85377e-005  -0.000137755  1.64466e-006
         8.85  -0.000308359    0.00212783      -8.99926 -9.37743e-005   -0.00015144  3.94869e-006
          8.9  -0.000206944     0.0021504      -8.99931 -9.89601e-005  -0.000165092  6.22566e-006
         8.95  -0.000104117    0.00217053      -8.99936  -0.000104085  -0.000178689  8.47497e-006
            9  -1.6722e-017    0.00218816      -8.99942  -0.000109141  -0.000192209  1.06962e-005
         9.05    0.00010528    0.00220322      -8.99947  -0.000114117   -0.00020563  1.28892e-005
          9.1   0.000211595    0.00221566      -8.99953  -0.000119004   -0.00021893  1.50539e-005
         9.15   0.000318812    0.00222543      -8.99959  -0.000123792  -0.000232086  1.71904e-005
          9.2   0.000426798    0.00223246      -8.99965  -0.000128472  -0.000245076  1.92989e-005
         9.25   0.000535415    0.00223673      -8.99971  -0.000133033  -0.000257877  2.13799e-005
          9.3   0.000644526    0.00223816      -8.99977  -0.000137467  -0.000270468  2.34337e-005
         9.35    0.00075399    0.00223674      -8.99983  -0.000141764  -0.000282825  2.54608e-005
          9.4   0.000863664    0.00223242       -8.9999  -0.000145913  -0.000294927  2.74618e-005
         9.45   0.000973404    0.00222516      -8.99996  -0.000149907  -0.000306751  2.94372e-005
          9.5    0.00108306    0.00221493      -9.00003  -0.000153734  -0.000318274  3.13875e-005
         9.55     0.0011925    0.00220172       -9.0001  -0.000157387  -0.000329476  3.33133e-005
          9.6    0.00130156    0.00218549      -9.00017  -0.000160856  -0.000340334   3.5215e-005
         9.65    0.00141009    0.00216623      -9.00024  -0.000164132  -0.000350827  3.70928e-005
          9.7    0.00151796    0.00214392      -9.00031  -0.000167207  -0.000360933  3.89469e-005
         9.75      0.001625    0.00211856      -9.00038  -0.000170071  -0.000370632  4.07772e-005
          9.8    0.00173107    0.00209014      -9.00045  -0.000172717  -0.000379902  4.25835e-005
         9.85    0.00183602    0.00205865      -9.00052  -0.000175137  -0.000388725  4.43654e-005
          9.9    0.00193969    0.00202411      -9.00059  -0.000177322  -0.000397079  4.61224e-005
         9.95    0.00204194    0.00198652      -9.00066  -0.000179266  -0.000404946  4.78536e-005
           10    0.00214263    0.00194588      -9.00074  -0.000180961  -0.000412308  4.95581e-005
        10.05    0.00224159    0.00190222      -9.00081    -0.0001824  -0.000419145  5.12346e-005
