hotint output data
notes: time (s), wave elevation (m), surge (m), heave (m), pitch (rads), flap 1 pitch (rads), flap 2 pitch (rads)
amplitude: -0.01m, period: 15s
            0            -0 -1.97143e-008            -9 -2.22578e-009 -2.36599e-008  3.55572e-008
         0.05   3.4904e-007 -9.72546e-008            -9 -1.11741e-008 -1.18806e-007  1.73679e-007
          0.1  1.39586e-006 -2.49146e-007            -9 -2.92461e-008 -3.10281e-007  4.37913e-007
         0.15  3.13953e-006 -4.73052e-007            -9 -5.67742e-008 -5.98762e-007  8.12997e-007
          0.2  5.57852e-006 -7.69246e-007            -9   -9.422e-008 -9.83651e-007  1.28466e-006
         0.25  8.71071e-006 -1.14024e-006            -9 -1.42148e-007 -1.46323e-006  1.83953e-006
          0.3  1.25333e-005 -1.59045e-006            -9 -2.01201e-007 -2.03488e-006  2.46512e-006
         0.35   1.7043e-005 -2.12594e-006      -9.00001 -2.72079e-007 -2.69526e-006  3.14986e-006
          0.4  2.22358e-005 -2.75412e-006      -9.00001 -3.55519e-007 -3.44038e-006  3.88294e-006
         0.45  2.81072e-005 -3.48354e-006      -9.00001 -4.52276e-007 -4.26578e-006  4.65438e-006
          0.5  3.46519e-005  -4.3237e-006      -9.00001 -5.63112e-007 -5.16669e-006  5.45505e-006
         0.55  4.18643e-005 -5.28484e-006      -9.00002 -6.88776e-007 -6.13814e-006  6.27667e-006
          0.6   4.9738e-005 -6.37779e-006      -9.00002 -8.29995e-007 -7.17512e-006  7.11184e-006
         0.65   5.8266e-005 -7.61382e-006      -9.00002 -9.87462e-007 -8.27263e-006    7.954e-006
          0.7  6.74408e-005 -9.00448e-006      -9.00003 -1.16183e-006  -9.4258e-006  8.79742e-006
         0.75  7.72542e-005 -1.05615e-005      -9.00003 -1.35369e-006   -1.063e-005  9.63722e-006
          0.8  8.76978e-005 -1.22968e-005      -9.00003 -1.56358e-006 -1.18807e-005  1.04694e-005
         0.85  9.87621e-005 -1.42221e-005      -9.00004 -1.79198e-006 -1.31741e-005  1.12905e-005
          0.9   0.000110437 -1.63491e-005      -9.00004  -2.0393e-006 -1.45062e-005  1.20981e-005
         0.95   0.000122713 -1.86893e-005      -9.00005 -2.30585e-006 -1.58738e-005  1.28903e-005
            1   0.000135579 -2.12542e-005      -9.00006 -2.59189e-006 -1.72738e-005  1.36657e-005
         1.05   0.000149023 -2.40546e-005      -9.00006  -2.8976e-006 -1.87035e-005  1.44236e-005
          1.1   0.000163033 -2.71013e-005      -9.00007 -3.22307e-006 -2.01609e-005  1.51637e-005
         1.15   0.000177597 -3.04047e-005      -9.00008 -3.56832e-006 -2.16438e-005  1.58862e-005
          1.2   0.000192701 -3.39749e-005      -9.00008 -3.93329e-006 -2.31506e-005  1.65914e-005
         1.25   0.000208333 -3.78214e-005      -9.00009 -4.31784e-006   -2.468e-005  1.72803e-005
          1.3   0.000224478 -4.19536e-005       -9.0001 -4.72175e-006 -2.62309e-005  1.79536e-005
         1.35   0.000241122 -4.63804e-005      -9.00011 -5.14473e-006 -2.78023e-005  1.86125e-005
          1.4   0.000258249 -5.11104e-005      -9.00012 -5.58642e-006 -2.93935e-005  1.92582e-005
         1.45   0.000275845 -5.61519e-005      -9.00012 -6.04639e-006 -3.10037e-005  1.98918e-005
          1.5   0.000293893 -6.15127e-005      -9.00013 -6.52415e-006 -3.26323e-005  2.05145e-005
         1.55   0.000312376 -6.72005e-005      -9.00014 -7.01913e-006 -3.42788e-005  2.11273e-005
          1.6   0.000331279 -7.32226e-005      -9.00015 -7.53072e-006 -3.59425e-005  2.17311e-005
         1.65   0.000350583 -7.95862e-005      -9.00016 -8.05825e-006 -3.76227e-005  2.23268e-005
          1.7   0.000370272  -8.6298e-005      -9.00017 -8.60099e-006 -3.93187e-005   2.2915e-005
         1.75   0.000390326 -9.33649e-005      -9.00019 -9.15815e-006 -4.10295e-005   2.3496e-005
          1.8   0.000410728  -0.000100793       -9.0002 -9.72892e-006 -4.27543e-005  2.40702e-005
         1.85   0.000431459   -0.00010859      -9.00021 -1.03124e-005 -4.44917e-005  2.46375e-005
          1.9   0.000452499   -0.00011676      -9.00022 -1.09078e-005 -4.62405e-005  2.51977e-005
         1.95    0.00047383  -0.000125311      -9.00023  -1.1514e-005 -4.79992e-005  2.57506e-005
            2    0.00049543  -0.000134248      -9.00025 -1.21301e-005 -4.97661e-005  2.62955e-005
         2.05    0.00051728  -0.000143577      -9.00026 -1.27551e-005 -5.15396e-005  2.68317e-005
          2.1   0.000539359  -0.000153304      -9.00027  -1.3388e-005 -5.33174e-005  2.73583e-005
         2.15   0.000561647  -0.000163436      -9.00029 -1.40276e-005 -5.50977e-005  2.78742e-005
          2.2   0.000584122  -0.000173977       -9.0003 -1.46729e-005 -5.68782e-005  2.83785e-005
         2.25   0.000606763  -0.000184933      -9.00032 -1.53228e-005 -5.86565e-005  2.88698e-005
          2.3   0.000629548  -0.000196311      -9.00033 -1.59761e-005 -6.04303e-005  2.93467e-005
         2.35   0.000652455  -0.000208116      -9.00035 -1.66316e-005 -6.21968e-005   2.9808e-005
          2.4   0.000675462  -0.000220353      -9.00036 -1.72882e-005 -6.39537e-005  3.02522e-005
         2.45   0.000698547  -0.000233028      -9.00038 -1.79447e-005 -6.56981e-005  3.06778e-005
          2.5   0.000721688  -0.000246146       -9.0004 -1.85999e-005 -6.74276e-005  3.10834e-005
         2.55   0.000744861  -0.000259714      -9.00041 -1.92525e-005 -6.91393e-005  3.14675e-005
          2.6   0.000768043  -0.000273735      -9.00043 -1.99014e-005 -7.08306e-005  3.18287e-005
         2.65   0.000791212  -0.000288216      -9.00045 -2.05453e-005 -7.24988e-005  3.21656e-005
          2.7   0.000814344  -0.000303161      -9.00046  -2.1183e-005 -7.41411e-005  3.24766e-005
         2.75   0.000837417  -0.000318576      -9.00048 -2.18133e-005 -7.57548e-005  3.27605e-005
          2.8   0.000860406  -0.000334465       -9.0005 -2.24349e-005 -7.73372e-005  3.30158e-005
         2.85   0.000883288  -0.000350833      -9.00052 -2.30466e-005 -7.88856e-005  3.32411e-005
          2.9   0.000906039  -0.000367684      -9.00053 -2.36472e-005 -8.03974e-005  3.34352e-005
         2.95   0.000928637  -0.000385024      -9.00055 -2.42354e-005 -8.18698e-005  3.35967e-005
            3   0.000951057  -0.000402856      -9.00057   -2.481e-005 -8.33001e-005  3.37243e-005
         3.05   0.000973275  -0.000421184      -9.00059 -2.53699e-005 -8.46859e-005  3.38169e-005
          3.1   0.000995268  -0.000440012      -9.00061 -2.59139e-005 -8.60243e-005  3.38733e-005
         3.15    0.00101701  -0.000459343      -9.00063 -2.64407e-005  -8.7313e-005  3.38923e-005
          3.2    0.00103848  -0.000479182      -9.00064 -2.69491e-005 -8.85492e-005  3.38728e-005
         3.25    0.00105966   -0.00049953      -9.00066 -2.74382e-005 -8.97304e-005  3.38138e-005
          3.3    0.00108052  -0.000520391      -9.00068 -2.79067e-005 -9.08542e-005  3.37144e-005
         3.35    0.00110103  -0.000541767       -9.0007 -2.83534e-005  -9.1918e-005  3.35736e-005
          3.4    0.00112118   -0.00056366      -9.00072 -2.87774e-005 -9.29196e-005  3.33905e-005
         3.45    0.00114093  -0.000586071      -9.00074 -2.91775e-005 -9.38565e-005  3.31646e-005
          3.5    0.00116028  -0.000609003      -9.00076 -2.95527e-005 -9.47264e-005   3.2895e-005
         3.55    0.00117918  -0.000632456      -9.00078  -2.9902e-005  -9.5527e-005  3.25812e-005
          3.6    0.00119763   -0.00065643       -9.0008 -3.02243e-005 -9.62564e-005  3.22228e-005
         3.65     0.0012156  -0.000680925      -9.00081 -3.05187e-005 -9.69123e-005  3.18194e-005
          3.7    0.00123306  -0.000705942      -9.00083 -3.07843e-005 -9.74928e-005  3.13707e-005
         3.75       0.00125  -0.000731479      -9.00085 -3.10201e-005 -9.79961e-005  3.08765e-005
          3.8    0.00126639  -0.000757534      -9.00087 -3.12253e-005 -9.84202e-005  3.03369e-005
         3.85    0.00128221  -0.000784106      -9.00089 -3.13989e-005 -9.87635e-005  2.97518e-005
          3.9    0.00129743  -0.000811193      -9.00091 -3.15403e-005 -9.90245e-005  2.91213e-005
         3.95    0.00131205   -0.00083879      -9.00092 -3.16485e-005 -9.92015e-005  2.84458e-005
            4    0.00132603  -0.000866895      -9.00094 -3.17228e-005 -9.92932e-005  2.77256e-005
         4.05    0.00133935  -0.000895503      -9.00096 -3.17625e-005 -9.92983e-005  2.69611e-005
          4.1    0.00135201  -0.000924609      -9.00098  -3.1767e-005 -9.92156e-005  2.61527e-005
         4.15    0.00136396  -0.000954208      -9.00099 -3.17356e-005 -9.90439e-005  2.53012e-005
          4.2     0.0013752  -0.000984293      -9.00101 -3.16676e-005 -9.87824e-005  2.44073e-005
         4.25    0.00138571   -0.00101486      -9.00102 -3.15625e-005   -9.843e-005  2.34716e-005
          4.3    0.00139546   -0.00104589      -9.00104 -3.14198e-005 -9.79859e-005   2.2495e-005
         4.35    0.00140445   -0.00107739      -9.00106  -3.1239e-005 -9.74494e-005  2.14785e-005
          4.4    0.00141264   -0.00110935      -9.00107 -3.10197e-005   -9.682e-005   2.0423e-005
         4.45    0.00142002   -0.00114175      -9.00109 -3.07614e-005  -9.6097e-005  1.93296e-005
          4.5    0.00142658   -0.00117458       -9.0011 -3.04638e-005   -9.528e-005  1.81994e-005
         4.55     0.0014323   -0.00120784      -9.00111 -3.01266e-005 -9.43687e-005  1.70337e-005
          4.6    0.00143717    -0.0012415      -9.00113 -2.97495e-005 -9.33628e-005  1.58338e-005
         4.65    0.00144115   -0.00127557      -9.00114 -2.93323e-005 -9.22622e-005  1.46008e-005
          4.7    0.00144425   -0.00131002      -9.00115 -2.88748e-005 -9.10669e-005  1.33364e-005
         4.75    0.00144645   -0.00134484      -9.00116 -2.83769e-005  -8.9777e-005  1.20419e-005
          4.8    0.00144772   -0.00138002      -9.00117 -2.78385e-005 -8.83925e-005   1.0719e-005
         4.85    0.00144807   -0.00141554      -9.00119 -2.72595e-005 -8.69138e-005  9.36914e-006
          4.9    0.00144747   -0.00145138      -9.00119   -2.664e-005 -8.53414e-005  7.99407e-006
         4.95    0.00144591   -0.00148753       -9.0012   -2.598e-005 -8.36756e-005   6.5955e-006
            5    0.00144338   -0.00152397      -9.00121 -2.52796e-005  -8.1917e-005  5.17519e-006
         5.05    0.00143986   -0.00156068      -9.00122  -2.4539e-005 -8.00665e-005  3.73495e-006
          5.1    0.00143536   -0.00159764      -9.00123 -2.37585e-005 -7.81249e-005  2.27662e-006
         5.15    0.00142985   -0.00163483      -9.00123 -2.29382e-005 -7.60929e-005  8.02081e-007
          5.2    0.00142333   -0.00167223      -9.00124 -2.20784e-005 -7.39719e-005  -6.8678e-007
         5.25    0.00141578   -0.00170982      -9.00124 -2.11796e-005 -7.17627e-005 -2.18806e-006
          5.3     0.0014072   -0.00174757      -9.00125 -2.02422e-005 -6.94668e-005 -3.69984e-006
         5.35    0.00139759   -0.00178547      -9.00125 -1.92665e-005 -6.70854e-005 -5.22022e-006
          5.4    0.00138692   -0.00182349      -9.00125 -1.82532e-005   -6.462e-005 -6.74731e-006
         5.45    0.00137521    -0.0018616      -9.00126 -1.72027e-005 -6.20722e-005 -8.27922e-006
          5.5    0.00136243   -0.00189978      -9.00126 -1.61158e-005 -5.94435e-005 -9.81412e-006
         5.55    0.00134859   -0.00193801      -9.00126 -1.49931e-005 -5.67357e-005 -1.13502e-005
          5.6    0.00133368   -0.00197626      -9.00125 -1.38353e-005 -5.39506e-005 -1.28856e-005
         5.65     0.0013177   -0.00201449      -9.00125 -1.26432e-005 -5.10901e-005 -1.44188e-005
          5.7    0.00130064    -0.0020527      -9.00125 -1.14177e-005 -4.81561e-005 -1.59479e-005
         5.75     0.0012825   -0.00209084      -9.00125 -1.01596e-005 -4.51508e-005 -1.74713e-005
          5.8    0.00126328   -0.00212889      -9.00124 -8.86984e-006 -4.20762e-005 -1.89876e-005
         5.85    0.00124298   -0.00216682      -9.00124 -7.54948e-006 -3.89347e-005 -2.04952e-005
          5.9    0.00122159    -0.0022046      -9.00123 -6.19953e-006 -3.57284e-005 -2.19927e-005
         5.95    0.00119912    -0.0022422      -9.00122 -4.82109e-006 -3.24598e-005 -2.34787e-005
            6    0.00117557    -0.0022796      -9.00121 -3.41532e-006 -2.91313e-005  -2.4952e-005
         6.05    0.00115094   -0.00231676       -9.0012 -1.98341e-006 -2.57454e-005 -2.64114e-005
          6.1    0.00112523   -0.00235364      -9.00119 -5.26626e-007 -2.23049e-005 -2.78558e-005
         6.15    0.00109844   -0.00239023      -9.00118  9.53747e-007 -1.88122e-005 -2.92842e-005
          6.2    0.00107059   -0.00242649      -9.00116  2.45636e-006 -1.52702e-005 -3.06957e-005
         6.25    0.00104167   -0.00246238      -9.00115  3.97981e-006 -1.16817e-005 -3.20893e-005
          6.3    0.00101168   -0.00249788      -9.00113  5.52266e-006 -8.04953e-006 -3.34645e-005
         6.35   0.000980643   -0.00253296      -9.00112  7.08343e-006 -4.37661e-006 -3.48204e-005
          6.4   0.000948555   -0.00256757       -9.0011  8.66059e-006 -6.65937e-007 -3.61567e-005
         6.45   0.000915425    -0.0026017      -9.00108  1.02526e-005  3.07945e-006 -3.74727e-005
          6.5   0.000881263   -0.00263531      -9.00106  1.18578e-005  6.85645e-006 -3.87682e-005
         6.55   0.000846076   -0.00266836      -9.00104  1.34745e-005  1.06619e-005 -4.00429e-005
          6.6   0.000809874   -0.00270082      -9.00102  1.51012e-005  1.44928e-005 -4.12966e-005
         6.65   0.000772668   -0.00273267        -9.001   1.6736e-005  1.83456e-005 -4.25292e-005
          6.7   0.000734469   -0.00276386      -9.00097  1.83772e-005  2.22174e-005 -4.37407e-005
         6.75   0.000695288   -0.00279438      -9.00095  2.00232e-005  2.61046e-005 -4.49312e-005
          6.8   0.000655139   -0.00282418      -9.00092  2.16719e-005  3.00041e-005 -4.61008e-005
         6.85   0.000614034   -0.00285323      -9.00089  2.33217e-005  3.39124e-005 -4.72497e-005
          6.9   0.000571987   -0.00288151      -9.00086  2.49707e-005  3.78262e-005 -4.83782e-005
         6.95   0.000529013   -0.00290898      -9.00083   2.6617e-005  4.17421e-005 -4.94867e-005
            7   0.000485127   -0.00293561       -9.0008  2.82588e-005  4.56567e-005 -5.05756e-005
         7.05   0.000440346   -0.00296137      -9.00077  2.98941e-005  4.95665e-005 -5.16453e-005
          7.1   0.000394686   -0.00298624      -9.00073   3.1521e-005   5.3468e-005 -5.26963e-005
         7.15   0.000348165   -0.00301017       -9.0007  3.31378e-005  5.73578e-005 -5.37291e-005
          7.2     0.0003008   -0.00303314      -9.00066  3.47423e-005  6.12325e-005 -5.47444e-005
         7.25    0.00025261   -0.00305512      -9.00063  3.63328e-005  6.50885e-005 -5.57428e-005
          7.3   0.000203616   -0.00307609      -9.00059  3.79073e-005  6.89223e-005 -5.67248e-005
         7.35   0.000153837   -0.00309601      -9.00055   3.9464e-005  7.27304e-005 -5.76912e-005
          7.4   0.000103293   -0.00311486      -9.00051  4.10008e-005  7.65094e-005 -5.86426e-005
         7.45   5.2007e-005   -0.00313261      -9.00047   4.2516e-005  8.02557e-005 -5.95797e-005
          7.5  2.02902e-017   -0.00314924      -9.00042  4.40076e-005  8.39659e-005 -6.05032e-005
         7.55 -5.27051e-005   -0.00316471      -9.00038  4.54739e-005  8.76365e-005 -6.14139e-005
          7.6  -0.000106085     -0.003179      -9.00034  4.69129e-005   9.1264e-005 -6.23123e-005
         7.65  -0.000160116   -0.00319209      -9.00029  4.83228e-005  9.48449e-005 -6.31993e-005
          7.7  -0.000214773   -0.00320396      -9.00024   4.9702e-005  9.83758e-005 -6.40756e-005
         7.75  -0.000270032   -0.00321457      -9.00019  5.10486e-005   0.000101853 -6.49418e-005
          7.8  -0.000325866   -0.00322392      -9.00015  5.23608e-005   0.000105274 -6.57986e-005
         7.85  -0.000382251   -0.00323197       -9.0001   5.3637e-005   0.000108634 -6.66467e-005
          7.9  -0.000439158    -0.0032387      -9.00005  5.48755e-005   0.000111931 -6.74868e-005
         7.95   -0.00049656    -0.0032441      -8.99999  5.60748e-005   0.000115161 -6.83194e-005
            8  -0.000554431   -0.00324815      -8.99994  5.72331e-005   0.000118321 -6.91452e-005
         8.05  -0.000612742   -0.00325082      -8.99989  5.83491e-005   0.000121407 -6.99648e-005
          8.1  -0.000671463   -0.00325211      -8.99983  5.94211e-005   0.000124417 -7.07786e-005
         8.15  -0.000730566   -0.00325199      -8.99978  6.04477e-005   0.000127347 -7.15871e-005
          8.2   -0.00079002   -0.00325044      -8.99972  6.14276e-005   0.000130194 -7.23908e-005
         8.25  -0.000849797   -0.00324746      -8.99967  6.23594e-005   0.000132955 -7.31901e-005
          8.3  -0.000909864   -0.00324303      -8.99961  6.32418e-005   0.000135627 -7.39852e-005
         8.35  -0.000970192   -0.00323713      -8.99955  6.40736e-005   0.000138207 -7.47764e-005
          8.4   -0.00103075   -0.00322976      -8.99949  6.48536e-005   0.000140693  -7.5564e-005
         8.45    -0.0010915    -0.0032209      -8.99943  6.55807e-005   0.000143081  -7.6348e-005
          8.5   -0.00115242   -0.00321054      -8.99937  6.62538e-005   0.000145369 -7.71284e-005
         8.55   -0.00121347   -0.00319868      -8.99931  6.68721e-005   0.000147554 -7.79053e-005
          8.6   -0.00127462    -0.0031853      -8.99925  6.74345e-005   0.000149634 -7.86784e-005
         8.65   -0.00133584    -0.0031704      -8.99919  6.79404e-005   0.000151607 -7.94476e-005
          8.7   -0.00139709   -0.00315398      -8.99913  6.83887e-005   0.000153469 -8.02125e-005
         8.75   -0.00145833   -0.00313602      -8.99906  6.87791e-005    0.00015522 -8.09727e-005
          8.8   -0.00151955   -0.00311653        -8.999  6.91107e-005   0.000156856 -8.17277e-005
         8.85   -0.00158069    -0.0030955      -8.99894  6.93831e-005   0.000158376 -8.24768e-005
          8.9   -0.00164173   -0.00307292      -8.99887  6.95958e-005   0.000159779 -8.32194e-005
         8.95   -0.00170263   -0.00304881      -8.99881  6.97485e-005   0.000161061 -8.39546e-005
            9   -0.00176336   -0.00302316      -8.99874  6.98409e-005   0.000162223 -8.46815e-005
         9.05   -0.00182387   -0.00299597      -8.99868  6.98727e-005   0.000163263 -8.53991e-005
          9.1   -0.00188415   -0.00296724      -8.99861   6.9844e-005   0.000164178 -8.61063e-005
         9.15   -0.00194414   -0.00293697      -8.99855  6.97547e-005   0.000164969 -8.68019e-005
          9.2   -0.00200382   -0.00290518      -8.99848  6.96048e-005   0.000165635 -8.74847e-005
         9.25   -0.00206315   -0.00287186      -8.99842  6.93944e-005   0.000166174 -8.81533e-005
          9.3    -0.0021221   -0.00283702      -8.99835   6.9124e-005   0.000166586 -8.88063e-005
         9.35   -0.00218062   -0.00280067      -8.99829  6.87937e-005   0.000166871 -8.94424e-005
          9.4   -0.00223868   -0.00276282      -8.99822  6.84039e-005   0.000167028 -9.00599e-005
         9.45   -0.00229625   -0.00272347      -8.99816  6.79553e-005   0.000167058 -9.06575e-005
          9.5   -0.00235329   -0.00268264      -8.99809  6.74484e-005    0.00016696 -9.12334e-005
         9.55   -0.00240977   -0.00264033      -8.99803  6.68838e-005   0.000166735 -9.17862e-005
          9.6   -0.00246564   -0.00259657      -8.99796  6.62623e-005   0.000166383 -9.23143e-005
         9.65   -0.00252088   -0.00255135       -8.9979  6.55848e-005   0.000165905 -9.28161e-005
          9.7   -0.00257545    -0.0025047      -8.99783  6.48522e-005   0.000165301 -9.32901e-005
         9.75   -0.00262931   -0.00245663      -8.99777  6.40654e-005   0.000164573 -9.37348e-005
          9.8   -0.00268242   -0.00240715      -8.99771  6.32256e-005   0.000163722 -9.41487e-005
         9.85   -0.00273476   -0.00235629      -8.99764  6.23338e-005   0.000162749 -9.45304e-005
          9.9   -0.00278628   -0.00230405      -8.99758  6.13913e-005   0.000161656 -9.48785e-005
         9.95   -0.00283696   -0.00225045      -8.99752  6.03994e-005   0.000160444 -9.51917e-005
           10   -0.00288675   -0.00219553      -8.99746  5.93593e-005   0.000159115 -9.54687e-005
        10.05   -0.00293563   -0.00213928      -8.99739  5.82725e-005   0.000157671 -9.57083e-005
