hotint output data
notes: time (s), wave elevation (m), surge (m), heave (m), pitch (rads), flap 1 pitch (rads), flap 2 pitch (rads)
amplitude: -0.01m, period: 10s
            0            -0 -4.92407e-008            -9 -6.82505e-009 -6.41084e-008  6.86572e-009
         0.05  5.23513e-007 -2.55749e-007            -9 -3.47508e-008 -3.17973e-007  3.60129e-008
          0.1  2.09302e-006 -6.96663e-007            -9 -9.23986e-008 -8.17948e-007  9.89917e-008
         0.15  4.70542e-006  -1.4073e-006            -9 -1.81951e-007 -1.55344e-006  2.01124e-007
          0.2  8.35555e-006 -2.42033e-006            -9 -3.05272e-007 -2.51327e-006  3.46472e-007
         0.25  1.30362e-005 -3.76593e-006      -9.00001 -4.63914e-007 -3.68561e-006  5.38008e-007
          0.3  1.87381e-005 -5.47186e-006      -9.00001 -6.59121e-007 -5.05812e-006  7.77745e-007
         0.35    2.545e-005 -7.56348e-006      -9.00001 -8.91836e-007 -6.61809e-006  1.06687e-006
          0.4  3.31587e-005  -1.0064e-005      -9.00002 -1.16271e-006 -8.35232e-006  1.40589e-006
         0.45  4.18487e-005 -1.29942e-005      -9.00002 -1.47208e-006 -1.02473e-005  1.79471e-006
          0.5  5.15028e-005 -1.63728e-005      -9.00003 -1.82004e-006 -1.22893e-005  2.23274e-006
         0.55   6.2102e-005 -2.02163e-005      -9.00003 -2.20638e-006 -1.44649e-005  2.71898e-006
          0.6  7.36249e-005  -2.4539e-005      -9.00004 -2.63063e-006 -1.67607e-005  3.25212e-006
         0.65  8.60487e-005 -2.93531e-005      -9.00004 -3.09209e-006 -1.91637e-005  3.83059e-006
          0.7  9.93485e-005 -3.46688e-005      -9.00005  -3.5898e-006 -2.16612e-005  4.45265e-006
         0.75   0.000113498 -4.04943e-005      -9.00006 -4.12258e-006 -2.42414e-005  5.11643e-006
          0.8   0.000128468  -4.6836e-005      -9.00006 -4.68908e-006 -2.68929e-005  5.82003e-006
         0.85   0.000144228 -5.36986e-005      -9.00007 -5.28771e-006 -2.96051e-005   6.5615e-006
          0.9   0.000160748 -6.10851e-005      -9.00008 -5.91673e-006 -3.23682e-005  7.33896e-006
         0.95   0.000177993  -6.8997e-005      -9.00009 -6.57425e-006  -3.5173e-005  8.15057e-006
            1   0.000195928 -7.74345e-005       -9.0001 -7.25821e-006 -3.80112e-005  8.99458e-006
         1.05   0.000214517 -8.63966e-005      -9.00011 -7.96644e-006 -4.08752e-005  9.86934e-006
          1.1   0.000233722 -9.58809e-005      -9.00012 -8.69665e-006 -4.37583e-005  1.07733e-005
         1.15   0.000253503  -0.000105884      -9.00013 -9.44646e-006 -4.66542e-005  1.17051e-005
          1.2   0.000273819  -0.000116403      -9.00014 -1.02134e-005 -4.95573e-005  1.26634e-005
         1.25   0.000294628  -0.000127431      -9.00015 -1.09949e-005 -5.24628e-005   1.3647e-005
          1.3   0.000315886  -0.000138964      -9.00016 -1.17884e-005  -5.5366e-005  1.46549e-005
         1.35    0.00033755  -0.000150996      -9.00017 -1.25912e-005  -5.8263e-005   1.5686e-005
          1.4   0.000359573  -0.000163519      -9.00019 -1.34006e-005 -6.11498e-005  1.67394e-005
         1.45   0.000381908  -0.000176527       -9.0002 -1.42139e-005  -6.4023e-005  1.78142e-005
          1.5   0.000404508  -0.000190014      -9.00021 -1.50284e-005 -6.68792e-005  1.89096e-005
         1.55   0.000427325   -0.00020397      -9.00022 -1.58413e-005  -6.9715e-005  2.00247e-005
          1.6   0.000450308  -0.000218389      -9.00024 -1.66498e-005 -7.25272e-005  2.11586e-005
         1.65   0.000473408  -0.000233263      -9.00025 -1.74511e-005 -7.53125e-005  2.23105e-005
          1.7   0.000496574  -0.000248583      -9.00027 -1.82425e-005 -7.80673e-005  2.34793e-005
         1.75   0.000519754  -0.000264342      -9.00028 -1.90213e-005 -8.07881e-005  2.46641e-005
          1.8   0.000542896  -0.000280531      -9.00029 -1.97846e-005 -8.34711e-005  2.58635e-005
         1.85   0.000565949  -0.000297141      -9.00031 -2.05298e-005 -8.61124e-005  2.70765e-005
          1.9   0.000588858  -0.000314165      -9.00032 -2.12542e-005 -8.87079e-005  2.83016e-005
         1.95   0.000611572  -0.000331592      -9.00034 -2.19551e-005  -9.1253e-005  2.95373e-005
            2   0.000634038  -0.000349414      -9.00035 -2.26298e-005 -9.37433e-005   3.0782e-005
         2.05   0.000656201  -0.000367621      -9.00037 -2.32758e-005 -9.61739e-005  3.20338e-005
          2.1   0.000678008  -0.000386205      -9.00038 -2.38904e-005   -9.854e-005  3.32909e-005
         2.15   0.000699407  -0.000405154       -9.0004 -2.44713e-005  -0.000100836  3.45513e-005
          2.2   0.000720344  -0.000424459      -9.00041 -2.50158e-005  -0.000103058  3.58127e-005
         2.25   0.000740766  -0.000444108      -9.00042 -2.55216e-005  -0.000105199  3.70728e-005
          2.3   0.000760621  -0.000464092      -9.00044 -2.59863e-005  -0.000107254  3.83294e-005
         2.35   0.000779857  -0.000484398      -9.00045 -2.64077e-005  -0.000109218  3.95799e-005
          2.4   0.000798421  -0.000505015      -9.00047 -2.67835e-005  -0.000111085  4.08218e-005
         2.45   0.000816264   -0.00052593      -9.00048 -2.71115e-005   -0.00011285  4.20523e-005
          2.5   0.000833333  -0.000547131      -9.00049 -2.73897e-005  -0.000114508   4.3269e-005
         2.55   0.000849581  -0.000568604      -9.00051  -2.7616e-005  -0.000116052  4.44689e-005
          2.6   0.000864956  -0.000590334      -9.00052 -2.77886e-005  -0.000117479  4.56495e-005
         2.65   0.000879413  -0.000612309      -9.00053 -2.79057e-005  -0.000118782  4.68079e-005
          2.7   0.000892903  -0.000634513      -9.00054 -2.79654e-005  -0.000119957  4.79415e-005
         2.75   0.000905381  -0.000656931      -9.00056 -2.79663e-005  -0.000120998  4.90474e-005
          2.8   0.000916801  -0.000679546      -9.00057 -2.79067e-005  -0.000121902  5.01231e-005
         2.85   0.000927121  -0.000702343      -9.00058 -2.77853e-005  -0.000122663  5.11658e-005
          2.9   0.000936297  -0.000725304      -9.00059 -2.76008e-005  -0.000123276   5.2173e-005
         2.95   0.000944289  -0.000748411       -9.0006 -2.73519e-005  -0.000123738  5.31421e-005
            3   0.000951057  -0.000771646      -9.00061 -2.70376e-005  -0.000124044  5.40707e-005
         3.05   0.000956562   -0.00079499      -9.00062 -2.66569e-005   -0.00012419  5.49562e-005
          3.1   0.000960769  -0.000818424      -9.00062  -2.6209e-005  -0.000124173  5.57964e-005
         3.15   0.000963642  -0.000841927      -9.00063 -2.56931e-005  -0.000123988  5.65891e-005
          3.2   0.000965149  -0.000865479      -9.00064 -2.51087e-005  -0.000123633   5.7332e-005
         3.25   0.000965257  -0.000889057      -9.00064 -2.44552e-005  -0.000123103  5.80231e-005
          3.3   0.000963937   -0.00091264      -9.00065 -2.37324e-005  -0.000122397  5.86603e-005
         3.35   0.000961162  -0.000936204      -9.00065   -2.294e-005  -0.000121511  5.92419e-005
          3.4   0.000956905  -0.000959726      -9.00066 -2.20779e-005  -0.000120442  5.97661e-005
         3.45   0.000951143  -0.000983181      -9.00066 -2.11461e-005   -0.00011919  6.02312e-005
          3.5   0.000943853   -0.00100654      -9.00066 -2.01449e-005  -0.000117752  6.06356e-005
         3.55   0.000935017   -0.00102979      -9.00066 -1.90745e-005  -0.000116126   6.0978e-005
          3.6   0.000924616   -0.00105289      -9.00066 -1.79354e-005  -0.000114311  6.12571e-005
         3.65   0.000912635   -0.00107582      -9.00066 -1.67281e-005  -0.000112308  6.14716e-005
          3.7   0.000899061   -0.00109855      -9.00066 -1.54533e-005  -0.000110114  6.16207e-005
         3.75   0.000883883   -0.00112105      -9.00065  -1.4112e-005  -0.000107731  6.17035e-005
          3.8   0.000867093    -0.0011433      -9.00065  -1.2705e-005  -0.000105159  6.17192e-005
         3.85   0.000848684   -0.00116525      -9.00065 -1.12335e-005  -0.000102398  6.16673e-005
          3.9   0.000828651   -0.00118689      -9.00064 -9.69879e-006 -9.94494e-005  6.15473e-005
         3.95   0.000806994   -0.00120818      -9.00063 -8.10221e-006 -9.63154e-005  6.13591e-005
            4   0.000783714   -0.00122908      -9.00062  -6.4453e-006 -9.29977e-005  6.11026e-005
         4.05   0.000758813   -0.00124958      -9.00061 -4.72973e-006 -8.94986e-005  6.07778e-005
          4.1   0.000732297   -0.00126963       -9.0006 -2.95729e-006 -8.58208e-005  6.03851e-005
         4.15   0.000704174   -0.00128919      -9.00059 -1.12991e-006 -8.19674e-005  5.99248e-005
          4.2   0.000674455   -0.00130825      -9.00058  7.50374e-007 -7.79418e-005  5.93976e-005
         4.25   0.000643153   -0.00132676      -9.00057  2.68137e-006 -7.37479e-005  5.88043e-005
          4.3   0.000610284   -0.00134468      -9.00055  4.66078e-006 -6.93897e-005  5.81458e-005
         4.35   0.000575864   -0.00136199      -9.00053  6.68617e-006 -6.48718e-005  5.74231e-005
          4.4   0.000539916   -0.00137865      -9.00052  8.75502e-006 -6.01988e-005  5.66377e-005
         4.45   0.000502461   -0.00139463       -9.0005  1.08647e-005 -5.53761e-005  5.57909e-005
          4.5   0.000463525   -0.00140988      -9.00048  1.30124e-005 -5.04088e-005  5.48844e-005
         4.55   0.000423137   -0.00142437      -9.00046  1.51952e-005 -4.53029e-005  5.39198e-005
          4.6   0.000381324   -0.00143808      -9.00043  1.74102e-005 -4.00643e-005  5.28991e-005
         4.65   0.000338122   -0.00145095      -9.00041  1.96544e-005 -3.46994e-005  5.18244e-005
          4.7   0.000293564   -0.00146296      -9.00039  2.19245e-005 -2.92148e-005  5.06978e-005
         4.75   0.000247688   -0.00147407      -9.00036  2.42173e-005 -2.36175e-005  4.95216e-005
          4.8   0.000200533   -0.00148424      -9.00033  2.65295e-005 -1.79146e-005  4.82984e-005
         4.85   0.000152142   -0.00149345      -9.00031  2.88576e-005 -1.21137e-005  4.70306e-005
          4.9   0.000102558   -0.00150164      -9.00028  3.11981e-005 -6.22251e-006   4.5721e-005
         4.95  5.18278e-005    -0.0015088      -9.00025  3.35475e-005 -2.49079e-007  4.43723e-005
            5  1.05662e-017   -0.00151488      -9.00022  3.59021e-005  5.79833e-006  4.29874e-005
         5.05 -5.28748e-005   -0.00151985      -9.00018  3.82581e-005  1.19112e-005  4.15694e-005
          5.1  -0.000106744   -0.00152368      -9.00015  4.06119e-005  1.80808e-005  4.01211e-005
         5.15  -0.000161553   -0.00152633      -9.00012  4.29596e-005  2.42981e-005  3.86458e-005
          5.2  -0.000217244   -0.00152776      -9.00008  4.52972e-005  3.05541e-005  3.71466e-005
         5.25   -0.00027376   -0.00152796      -9.00004   4.7621e-005  3.68394e-005  3.56267e-005
          5.3   -0.00033104   -0.00152688      -9.00001  4.99268e-005  4.31444e-005  3.40893e-005
         5.35  -0.000389022    -0.0015245      -8.99997  5.22108e-005  4.94597e-005  3.25376e-005
          5.4  -0.000447642   -0.00152079      -8.99993  5.44688e-005  5.57754e-005  3.09749e-005
         5.45  -0.000506834   -0.00151571      -8.99989   5.6697e-005  6.20816e-005  2.94044e-005
          5.5  -0.000566531   -0.00150924      -8.99985   5.8891e-005  6.83684e-005  2.78293e-005
         5.55  -0.000626665   -0.00150136       -8.9998   6.1047e-005  7.46257e-005  2.62528e-005
          5.6  -0.000687166   -0.00149203      -8.99976  6.31608e-005  8.08433e-005  2.46778e-005
         5.65  -0.000747962   -0.00148124      -8.99972  6.52282e-005  8.70112e-005  2.31075e-005
          5.7  -0.000808981   -0.00146895      -8.99967  6.72453e-005   9.3119e-005  2.15447e-005
         5.75  -0.000870148   -0.00145516      -8.99963   6.9208e-005  9.91565e-005  1.99924e-005
          5.8   -0.00093139   -0.00143983      -8.99958  7.11121e-005   0.000105113  1.84531e-005
         5.85  -0.000992631   -0.00142295      -8.99954  7.29537e-005    0.00011098  1.69296e-005
          5.9   -0.00105379    -0.0014045      -8.99949  7.47287e-005   0.000116745  1.54241e-005
         5.95    -0.0011148   -0.00138447      -8.99944  7.64332e-005   0.000122398  1.39392e-005
            6   -0.00117557   -0.00136284       -8.9994  7.80632e-005    0.00012793  1.24769e-005
         6.05   -0.00123603    -0.0013396      -8.99935  7.96149e-005   0.000133331  1.10393e-005
          6.1    -0.0012961   -0.00131474       -8.9993  8.10843e-005    0.00013859  9.62812e-006
         6.15   -0.00135569   -0.00128824      -8.99925  8.24677e-005   0.000143697   8.2451e-006
          6.2   -0.00141473   -0.00126012       -8.9992  8.37614e-005   0.000148642  6.89172e-006
         6.25   -0.00147314   -0.00123035      -8.99916  8.49617e-005   0.000153416  5.56929e-006
          6.3   -0.00153083   -0.00119894      -8.99911  8.60651e-005   0.000158008  4.27895e-006
         6.35   -0.00158774   -0.00116589      -8.99906   8.7068e-005   0.000162411  3.02165e-006
          6.4   -0.00164376   -0.00113119      -8.99901   8.7967e-005   0.000166613  1.79818e-006
         6.45   -0.00169883   -0.00109486      -8.99896  8.87589e-005   0.000170606  6.09125e-007
          6.5   -0.00175287   -0.00105689      -8.99891  8.94403e-005   0.000174382 -5.45084e-007
         6.55   -0.00180579    -0.0010173      -8.99886  9.00083e-005    0.00017793 -1.66419e-006
          6.6   -0.00185752  -0.000976104      -8.99881  9.04597e-005   0.000181244 -2.74811e-006
         6.65   -0.00190798  -0.000933305      -8.99876  9.07917e-005   0.000184314 -3.79691e-006
          6.7   -0.00195708  -0.000888922      -8.99872  9.10017e-005   0.000187133 -4.81082e-006
         6.75   -0.00200476  -0.000842974      -8.99867  9.10869e-005   0.000189693 -5.79019e-006
          6.8   -0.00205094  -0.000795482      -8.99862  9.10448e-005   0.000191987 -6.73556e-006
         6.85   -0.00209554  -0.000746469      -8.99858  9.08733e-005   0.000194008 -7.64754e-006
          6.9   -0.00213849  -0.000695959      -8.99853    9.057e-005   0.000195748 -8.52689e-006
         6.95   -0.00217971  -0.000643983      -8.99848   9.0133e-005   0.000197202  -9.3745e-006
            7   -0.00221913  -0.000590569      -8.99844  8.95605e-005   0.000198365 -1.01913e-005
         7.05   -0.00225669  -0.000535751       -8.9984  8.88507e-005   0.000199229 -1.09784e-005
          7.1   -0.00229231  -0.000479565      -8.99835  8.80022e-005    0.00019979 -1.17369e-005
         7.15   -0.00232593  -0.000422049      -8.99831  8.70137e-005   0.000200043  -1.2468e-005
          7.2   -0.00235749  -0.000363244      -8.99827   8.5884e-005   0.000199985 -1.31731e-005
         7.25   -0.00238691  -0.000303193      -8.99823  8.46122e-005    0.00019961 -1.38533e-005
          7.3   -0.00241415  -0.000241941      -8.99819  8.31976e-005   0.000198915   -1.451e-005
         7.35   -0.00243913  -0.000179537      -8.99815  8.16397e-005   0.000197897 -1.51448e-005
          7.4    -0.0024618  -0.000116031      -8.99812  7.99382e-005   0.000196555 -1.57588e-005
         7.45   -0.00248211 -5.14764e-005      -8.99808  7.80929e-005   0.000194884 -1.63536e-005
          7.5       -0.0025  1.40724e-005      -8.99805   7.6104e-005   0.000192884 -1.69305e-005
         7.55   -0.00251542  8.05574e-005      -8.99802  7.39719e-005   0.000190554 -1.74909e-005
          7.6   -0.00252833   0.000147919      -8.99799  7.16971e-005   0.000187893 -1.80362e-005
         7.65   -0.00253868   0.000216096      -8.99796  6.92804e-005     0.0001849 -1.85678e-005
          7.7   -0.00254643   0.000285023      -8.99793  6.67229e-005   0.000181575 -1.90869e-005
         7.75   -0.00255153   0.000354634       -8.9979  6.40259e-005   0.000177921 -1.95949e-005
          7.8   -0.00255395   0.000424863      -8.99788  6.11907e-005   0.000173937 -2.00928e-005
         7.85   -0.00255365   0.000495638      -8.99786  5.82193e-005   0.000169625 -2.05818e-005
          7.9    -0.0025506   0.000566887      -8.99784  5.51136e-005   0.000164989 -2.10631e-005
         7.95   -0.00254478   0.000638537      -8.99782  5.18758e-005    0.00016003 -2.15375e-005
            8   -0.00253615   0.000710513       -8.9978  4.85084e-005   0.000154752  -2.2006e-005
         8.05    -0.0025247   0.000782738      -8.99779  4.50141e-005   0.000149158 -2.24693e-005
          8.1    -0.0025104   0.000855133      -8.99777  4.13959e-005   0.000143254 -2.29282e-005
         8.15   -0.00249323   0.000927619      -8.99776  3.76571e-005   0.000137044 -2.33832e-005
          8.2   -0.00247319    0.00100011      -8.99775  3.38009e-005   0.000130532 -2.38346e-005
         8.25   -0.00245027    0.00107253      -8.99775  2.98312e-005   0.000123726 -2.42829e-005
          8.3   -0.00242445     0.0011448      -8.99774  2.57519e-005   0.000116631 -2.47281e-005
         8.35   -0.00239573    0.00121682      -8.99774  2.15671e-005   0.000109254 -2.51703e-005
          8.4   -0.00236412    0.00128852      -8.99774  1.72812e-005   0.000101603 -2.56092e-005
         8.45   -0.00232961     0.0013598      -8.99774   1.2899e-005  9.36855e-005 -2.60445e-005
          8.5   -0.00229221    0.00143058      -8.99775  8.42517e-006  8.55095e-005 -2.64757e-005
         8.55   -0.00225194    0.00150078      -8.99776  3.86493e-006   7.7084e-005 -2.69021e-005
          8.6    -0.0022088     0.0015703      -8.99777 -7.76426e-007  6.84181e-005 -2.73227e-005
         8.65   -0.00216282    0.00163905      -8.99778 -5.49337e-006  5.95218e-005 -2.77364e-005
          8.7   -0.00211401    0.00170695      -8.99779 -1.02801e-005  5.04051e-005 -2.81421e-005
         8.75   -0.00206239    0.00177391      -8.99781 -1.51308e-005  4.10787e-005 -2.85382e-005
          8.8     -0.002008    0.00183984      -8.99783 -2.00391e-005  3.15536e-005  -2.8923e-005
         8.85   -0.00195087    0.00190465      -8.99785 -2.49987e-005  2.18414e-005 -2.92947e-005
          8.9   -0.00189102    0.00196825      -8.99788 -3.00032e-005  1.19537e-005 -2.96514e-005
         8.95   -0.00182851    0.00203056       -8.9979 -3.50456e-005  1.90304e-006 -2.99908e-005
            9   -0.00176336    0.00209149      -8.99793 -4.01193e-005 -8.29806e-006 -3.03106e-005
         9.05   -0.00169562    0.00215095      -8.99797  -4.5217e-005 -1.86366e-005 -3.06083e-005
          9.1   -0.00162534    0.00220885        -8.998 -5.03315e-005 -2.90992e-005 -3.08814e-005
         9.15   -0.00155258    0.00226512      -8.99804 -5.54555e-005 -3.96722e-005 -3.11271e-005
          9.2   -0.00147738    0.00231966      -8.99808 -6.05815e-005 -5.03416e-005 -3.13427e-005
         9.25    -0.0013998     0.0023724      -8.99812 -6.57018e-005 -6.10933e-005 -3.15254e-005
          9.3   -0.00131992    0.00242325      -8.99816 -7.08087e-005 -7.19125e-005 -3.16722e-005
         9.35   -0.00123778    0.00247214      -8.99821 -7.58944e-005 -8.27847e-005 -3.17803e-005
          9.4   -0.00115346    0.00251898      -8.99826 -8.09509e-005 -9.36947e-005 -3.18467e-005
         9.45   -0.00106702     0.0025637      -8.99831 -8.59703e-005  -0.000104627 -3.18686e-005
          9.5  -0.000978554    0.00260623      -8.99837 -9.09444e-005  -0.000115567 -3.18432e-005
         9.55  -0.000888122    0.00264649      -8.99843 -9.58653e-005  -0.000126499 -3.17677e-005
          9.6  -0.000795808     0.0026844      -8.99849  -0.000100725  -0.000137407 -3.16395e-005
         9.65  -0.000701694    0.00271991      -8.99855  -0.000105515  -0.000148275  -3.1456e-005
          9.7  -0.000605866    0.00275294      -8.99861  -0.000110227  -0.000159087  -3.1215e-005
         9.75  -0.000508412    0.00278344      -8.99868  -0.000114853  -0.000169828 -3.09145e-005
          9.8  -0.000409422    0.00281133      -8.99875  -0.000119386  -0.000180481 -3.05524e-005
         9.85  -0.000308989    0.00283656      -8.99882  -0.000123816  -0.000191031  -3.0127e-005
          9.9  -0.000207209    0.00285907      -8.99889  -0.000128137  -0.000201461 -2.96369e-005
         9.95  -0.000104179    0.00287881      -8.99897   -0.00013234  -0.000211755 -2.90808e-005
           10  1.39865e-017    0.00289572      -8.99905  -0.000136418  -0.000221899 -2.84578e-005
        10.05   0.000105226    0.00290976      -8.99913  -0.000140362  -0.000231874 -2.77671e-005
