hotint output data
notes: time (s), wave elevation (m), surge (m), heave (m), pitch (rads), flap 1 pitch (rads), flap 2 pitch (rads)
amplitude: -0.01m, period: 8.5s
            0            -0 -6.59597e-008            -9 -7.98999e-009 -8.97297e-008  5.24566e-009
         0.05  6.15858e-007 -3.42752e-007            -9 -4.07646e-008 -4.42161e-007  2.61765e-008
          0.1  2.46175e-006 -9.34063e-007            -9 -1.08641e-007 -1.12771e-006  6.76083e-008
         0.15  5.53263e-006  -1.8873e-006            -9 -2.14411e-007 -2.12079e-006  1.28319e-007
          0.2  9.82011e-006 -3.24574e-006            -9 -3.60403e-007 -3.39585e-006  2.06287e-007
         0.25  1.53125e-005 -5.04879e-006            -9  -5.4849e-007 -4.92723e-006  2.98916e-007
          0.3  2.19946e-005 -7.33194e-006      -9.00001 -7.80095e-007 -6.68946e-006  4.03192e-007
         0.35  2.98483e-005  -1.0127e-005      -9.00001  -1.0562e-006 -8.65734e-006  5.15832e-007
          0.4   3.8852e-005  -1.3462e-005      -9.00001 -1.37737e-006 -1.08058e-005  6.33458e-007
         0.45  4.89808e-005 -1.73615e-005      -9.00001 -1.74373e-006 -1.31103e-005  7.52686e-007
          0.5  6.02069e-005 -2.18465e-005      -9.00001   -2.155e-006 -1.55466e-005   8.7019e-007
         0.55  7.24994e-005 -2.69342e-005      -9.00002 -2.61052e-006 -1.80916e-005  9.82781e-007
          0.6  8.58241e-005 -3.26386e-005      -9.00002 -3.10924e-006 -2.07233e-005  1.08746e-006
         0.65   0.000100144   -3.897e-005      -9.00002 -3.64977e-006 -2.34206e-005  1.18148e-006
          0.7    0.00011542 -4.59356e-005      -9.00003 -4.23039e-006 -2.61635e-005  1.26235e-006
         0.75   0.000131608 -5.35394e-005      -9.00003 -4.84905e-006 -2.89338e-005  1.32787e-006
          0.8   0.000148664 -6.17824e-005      -9.00004 -5.50345e-006 -3.17144e-005  1.37616e-006
         0.85   0.000166539 -7.06628e-005      -9.00004 -6.19099e-006 -3.44899e-005  1.40563e-006
          0.9   0.000185183 -8.01761e-005      -9.00004 -6.90886e-006 -3.72462e-005  1.41502e-006
         0.95   0.000204544 -9.03154e-005      -9.00005 -7.65405e-006 -3.99705e-005  1.40335e-006
            1   0.000224565  -0.000101072      -9.00005 -8.42336e-006 -4.26515e-005  1.36993e-006
         1.05    0.00024519  -0.000112433      -9.00006 -9.21341e-006 -4.52791e-005  1.31432e-006
          1.1   0.000266359  -0.000124387      -9.00007 -1.00207e-005 -4.78446e-005  1.23628e-006
         1.15   0.000288011   -0.00013692      -9.00007 -1.08416e-005 -5.03401e-005  1.13578e-006
          1.2   0.000310082  -0.000150013      -9.00008 -1.16725e-005 -5.27589e-005  1.01296e-006
         1.25   0.000332507  -0.000163652      -9.00008 -1.25095e-005  -5.5095e-005  8.68068e-007
          1.3   0.000355221  -0.000177816      -9.00009 -1.33489e-005 -5.73432e-005  7.01432e-007
         1.35   0.000378155  -0.000192486       -9.0001 -1.41867e-005  -5.9499e-005  5.13445e-007
          1.4    0.00040124  -0.000207643       -9.0001 -1.50192e-005 -6.15581e-005  3.04513e-007
         1.45   0.000424406  -0.000223267      -9.00011 -1.58424e-005 -6.35167e-005  7.50302e-008
          1.5   0.000447582  -0.000239334      -9.00012 -1.66525e-005 -6.53713e-005 -1.74655e-007
         1.55   0.000470695  -0.000255825      -9.00013 -1.74456e-005 -6.71184e-005 -4.44263e-007
          1.6   0.000493673  -0.000272717      -9.00013 -1.82179e-005 -6.87544e-005 -7.33607e-007
         1.65   0.000516444  -0.000289989      -9.00014 -1.89657e-005  -7.0276e-005 -1.04262e-006
          1.7   0.000538932  -0.000307617      -9.00015 -1.96853e-005 -7.16795e-005 -1.37135e-006
         1.75   0.000561065   -0.00032558      -9.00016 -2.03731e-005 -7.29612e-005 -1.71999e-006
          1.8   0.000582769  -0.000343856      -9.00016 -2.10254e-005  -7.4117e-005 -2.08891e-006
         1.85   0.000603969  -0.000362421      -9.00017 -2.16389e-005  -7.5143e-005 -2.47858e-006
          1.9   0.000624594  -0.000381253      -9.00018   -2.221e-005 -7.60347e-005 -2.88967e-006
         1.95   0.000644569  -0.000400329      -9.00019 -2.27355e-005 -7.67876e-005 -3.32297e-006
            2   0.000663823  -0.000419626      -9.00019 -2.32121e-005 -7.73971e-005 -3.77941e-006
         2.05   0.000682283  -0.000439121       -9.0002 -2.36369e-005 -7.78583e-005 -4.26006e-006
          2.1    0.00069988  -0.000458791      -9.00021 -2.40067e-005 -7.81663e-005 -4.76611e-006
         2.15   0.000716544  -0.000478613      -9.00021 -2.43187e-005 -7.83164e-005 -5.29884e-006
          2.2   0.000732207  -0.000498562      -9.00022 -2.45701e-005 -7.83034e-005 -5.85961e-006
         2.25   0.000746801  -0.000518615      -9.00023 -2.47583e-005 -7.81226e-005 -6.44987e-006
          2.3   0.000760261  -0.000538747      -9.00024 -2.48809e-005 -7.77692e-005 -7.07106e-006
         2.35   0.000772524  -0.000558936      -9.00024 -2.49355e-005 -7.72385e-005 -7.72469e-006
          2.4   0.000783528  -0.000579154      -9.00025 -2.49198e-005 -7.65261e-005 -8.41226e-006
         2.45   0.000793213  -0.000599379      -9.00025 -2.48319e-005 -7.56278e-005 -9.13525e-006
          2.5   0.000801521  -0.000619584      -9.00026 -2.46699e-005 -7.45399e-005 -9.89512e-006
         2.55   0.000808398  -0.000639745      -9.00026 -2.44321e-005 -7.32589e-005 -1.06933e-005
          2.6    0.00081379  -0.000659835      -9.00027 -2.41168e-005 -7.17814e-005  -1.1531e-005
         2.65   0.000817647  -0.000679829      -9.00027 -2.37229e-005 -7.01047e-005 -1.24095e-005
          2.7    0.00081992  -0.000699701      -9.00028 -2.32491e-005 -6.82262e-005   -1.333e-005
         2.75   0.000820566  -0.000719424      -9.00028 -2.26945e-005 -6.61438e-005 -1.42934e-005
          2.8   0.000819542  -0.000738971      -9.00029 -2.20581e-005 -6.38558e-005 -1.53006e-005
         2.85    0.00081681  -0.000758316      -9.00029 -2.13396e-005 -6.13609e-005 -1.63523e-005
          2.9   0.000812333  -0.000777432      -9.00029 -2.05384e-005  -5.8658e-005 -1.74491e-005
         2.95   0.000806078  -0.000796292      -9.00029 -1.96543e-005 -5.57466e-005 -1.85914e-005
            3   0.000798017  -0.000814868      -9.00029 -1.86874e-005 -5.26266e-005 -1.97794e-005
         3.05   0.000788124  -0.000833132       -9.0003 -1.76379e-005 -4.92981e-005 -2.10133e-005
          3.1   0.000776376  -0.000851056       -9.0003 -1.65062e-005 -4.57618e-005 -2.22928e-005
         3.15   0.000762755  -0.000868614       -9.0003 -1.52928e-005 -4.20189e-005 -2.36179e-005
          3.2   0.000747246  -0.000885775      -9.00029 -1.39987e-005 -3.80709e-005  -2.4988e-005
         3.25   0.000729837  -0.000902513      -9.00029 -1.26248e-005 -3.39196e-005 -2.64025e-005
          3.3   0.000710521  -0.000918799      -9.00029 -1.11724e-005 -2.95677e-005 -2.78606e-005
         3.35   0.000689294  -0.000934603      -9.00029 -9.64284e-006  -2.5018e-005 -2.93613e-005
          3.4   0.000666157  -0.000949896      -9.00028 -8.03782e-006 -2.02739e-005 -3.09036e-005
         3.45   0.000641113  -0.000964651      -9.00028 -6.35915e-006 -1.53395e-005 -3.24859e-005
          3.5   0.000614171  -0.000978837      -9.00028 -4.60886e-006 -1.02192e-005  -3.4107e-005
         3.55   0.000585343  -0.000992425      -9.00027 -2.78918e-006 -4.91798e-006 -3.57649e-005
          3.6   0.000554645   -0.00100539      -9.00026 -9.02541e-007  5.58487e-007  -3.7458e-005
         3.65   0.000522097   -0.00101769      -9.00026  1.04845e-006  6.20408e-006 -3.91841e-005
          3.7   0.000487723   -0.00102931      -9.00025  3.06097e-006  1.20121e-005  -4.0941e-005
         3.75   0.000451552   -0.00104021      -9.00024  5.13204e-006  1.79753e-005 -4.27263e-005
          3.8   0.000413616   -0.00105037      -9.00023  7.25847e-006  2.40858e-005 -4.45375e-005
         3.85    0.00037395   -0.00105976      -9.00022  9.43689e-006  3.03353e-005 -4.63718e-005
          3.9   0.000332596   -0.00106834      -9.00021  1.16638e-005  3.67149e-005 -4.82264e-005
         3.95   0.000289596   -0.00107609       -9.0002  1.39354e-005  4.32153e-005 -5.00981e-005
            4   0.000244999   -0.00108298      -9.00019  1.62479e-005  4.98265e-005 -5.19836e-005
         4.05   0.000198857   -0.00108898      -9.00017  1.85972e-005  5.65382e-005 -5.38797e-005
          4.1   0.000151225   -0.00109407      -9.00016  2.09792e-005  6.33397e-005 -5.57826e-005
         4.15   0.000102163   -0.00109821      -9.00014  2.33894e-005  7.02198e-005 -5.76888e-005
          4.2  5.17321e-005   -0.00110138      -9.00013  2.58235e-005   7.7167e-005 -5.95943e-005
         4.25  7.72301e-018   -0.00110356      -9.00011  2.82768e-005  8.41694e-005 -6.14951e-005
          4.3 -5.29638e-005   -0.00110471       -9.0001  3.07446e-005  9.12147e-005 -6.33871e-005
         4.35  -0.000107086   -0.00110482      -9.00008   3.3222e-005  9.82903e-005  -6.5266e-005
          4.4  -0.000162291   -0.00110385      -9.00006  3.57041e-005   0.000105384 -6.71274e-005
         4.45  -0.000218498   -0.00110179      -9.00004  3.81858e-005   0.000112481 -6.89668e-005
          4.5  -0.000275624   -0.00109862      -9.00002   4.0662e-005    0.00011957 -7.07796e-005
         4.55  -0.000333585    -0.0010943            -9  4.31275e-005   0.000126637 -7.25612e-005
          4.6  -0.000392292   -0.00108882      -8.99998  4.55769e-005   0.000133667 -7.43066e-005
         4.65  -0.000451654   -0.00108216      -8.99996  4.80051e-005   0.000140647 -7.60112e-005
          4.7  -0.000511577   -0.00107431      -8.99994  5.04064e-005   0.000147564 -7.76699e-005
         4.75  -0.000571966   -0.00106523      -8.99991  5.27757e-005   0.000154401 -7.92778e-005
          4.8  -0.000632722   -0.00105492      -8.99989  5.51073e-005   0.000161146 -8.08299e-005
         4.85  -0.000693745   -0.00104337      -8.99986  5.73958e-005   0.000167784 -8.23213e-005
          4.9  -0.000754933   -0.00103055      -8.99984  5.96358e-005     0.0001743 -8.37468e-005
         4.95  -0.000816182   -0.00101645      -8.99981  6.18217e-005    0.00018068 -8.51016e-005
            5  -0.000877387   -0.00100106      -8.99979  6.39481e-005   0.000186909 -8.63806e-005
         5.05  -0.000938441  -0.000984379      -8.99976  6.60095e-005   0.000192973 -8.75789e-005
          5.1  -0.000999235  -0.000966389      -8.99974  6.80006e-005   0.000198856 -8.86917e-005
         5.15   -0.00105966  -0.000947085      -8.99971   6.9916e-005   0.000204545 -8.97141e-005
          5.2   -0.00111961  -0.000926463      -8.99968  7.17503e-005   0.000210026 -9.06416e-005
         5.25   -0.00117897  -0.000904519      -8.99965  7.34984e-005   0.000215283 -9.14695e-005
          5.3   -0.00123763   -0.00088125      -8.99963   7.5155e-005   0.000220304 -9.21933e-005
         5.35   -0.00129547  -0.000856658       -8.9996   7.6715e-005   0.000225073 -9.28089e-005
          5.4    -0.0013524  -0.000830743      -8.99957  7.81736e-005   0.000229579 -9.33122e-005
         5.45   -0.00140829  -0.000803509      -8.99954  7.95257e-005   0.000233807 -9.36993e-005
          5.5   -0.00146303  -0.000774962      -8.99951  8.07667e-005   0.000237744 -9.39664e-005
         5.55   -0.00151652  -0.000745111      -8.99948  8.18919e-005   0.000241378 -9.41103e-005
          5.6   -0.00156864  -0.000713964      -8.99946  8.28968e-005   0.000244696 -9.41277e-005
         5.65   -0.00161929  -0.000681533      -8.99943   8.3777e-005   0.000247687 -9.40158e-005
          5.7   -0.00166835  -0.000647834       -8.9994  8.45283e-005   0.000250339  -9.3772e-005
         5.75   -0.00171573   -0.00061288      -8.99937  8.51468e-005   0.000252641 -9.33939e-005
          5.8   -0.00176131  -0.000576692      -8.99934  8.56285e-005   0.000254582 -9.28798e-005
         5.85   -0.00180499   -0.00053929      -8.99931  8.59698e-005   0.000256153  -9.2228e-005
          5.9   -0.00184668  -0.000500697      -8.99929  8.61671e-005   0.000257343 -9.14372e-005
         5.95   -0.00188626  -0.000460937      -8.99926  8.62173e-005   0.000258143 -9.05067e-005
            6   -0.00192365  -0.000420039      -8.99923  8.61172e-005   0.000258545 -8.94359e-005
         6.05   -0.00195875  -0.000378032       -8.9992   8.5864e-005   0.000258541 -8.82248e-005
          6.1   -0.00199147  -0.000334949      -8.99918   8.5455e-005   0.000258123 -8.68737e-005
         6.15   -0.00202171  -0.000290825      -8.99915  8.48879e-005   0.000257285 -8.53833e-005
          6.2    -0.0020494  -0.000245695      -8.99913  8.41604e-005   0.000256019 -8.37547e-005
         6.25   -0.00207445  -0.000199601       -8.9991  8.32706e-005   0.000254321 -8.19895e-005
          6.3   -0.00209677  -0.000152583      -8.99908  8.22169e-005   0.000252186 -8.00897e-005
         6.35   -0.00211631  -0.000104686      -8.99905  8.09979e-005   0.000249609 -7.80575e-005
          6.4   -0.00213297 -5.59564e-005      -8.99903  7.96123e-005   0.000246587 -7.58956e-005
         6.45    -0.0021467 -6.44391e-006      -8.99901  7.80594e-005   0.000243116 -7.36073e-005
          6.5   -0.00215742  4.38003e-005      -8.99899  7.63386e-005   0.000239195  -7.1196e-005
         6.55   -0.00216509  9.47225e-005      -8.99897  7.44494e-005   0.000234823 -6.86655e-005
          6.6   -0.00216964   0.000146267      -8.99895   7.2392e-005   0.000229999 -6.60202e-005
         6.65   -0.00217102   0.000198374      -8.99893  7.01664e-005   0.000224723 -6.32645e-005
          6.7   -0.00216919   0.000250984      -8.99891  6.77735e-005   0.000218996 -6.04035e-005
         6.75   -0.00216411   0.000304034       -8.9989  6.52138e-005    0.00021282 -5.74423e-005
          6.8   -0.00215573   0.000357458      -8.99888  6.24888e-005   0.000206197 -5.43863e-005
         6.85   -0.00214402   0.000411191      -8.99887  5.95997e-005   0.000199132 -5.12415e-005
          6.9   -0.00212897   0.000465161      -8.99886  5.65485e-005   0.000191628 -4.80139e-005
         6.95   -0.00211054     0.0005193      -8.99885  5.33372e-005    0.00018369 -4.47096e-005
            7   -0.00208871   0.000573532      -8.99884  4.99682e-005   0.000175325 -4.13353e-005
         7.05   -0.00206349   0.000627785      -8.99883  4.64443e-005   0.000166539 -3.78976e-005
          7.1   -0.00203486   0.000681981      -8.99882  4.27686e-005   0.000157339 -3.44033e-005
         7.15   -0.00200282   0.000736042      -8.99881  3.89444e-005   0.000147735 -3.08594e-005
          7.2   -0.00196738   0.000789889      -8.99881  3.49755e-005   0.000137735 -2.72731e-005
         7.25   -0.00192854   0.000843441      -8.99881  3.08659e-005   0.000127349 -2.36515e-005
          7.3   -0.00188633   0.000896615      -8.99881  2.66199e-005   0.000116589  -2.0002e-005
         7.35   -0.00184076   0.000949329      -8.99881  2.22422e-005   0.000105467 -1.63318e-005
          7.4   -0.00179187     0.0010015      -8.99881  1.77378e-005  9.39936e-005 -1.26485e-005
         7.45   -0.00173968    0.00105304      -8.99881   1.3112e-005  8.21835e-005  -8.9593e-006
          7.5   -0.00168424    0.00110386      -8.99882  8.37042e-006  7.00505e-005 -5.27168e-006
         7.55   -0.00162559    0.00115388      -8.99882  3.51898e-006  5.76096e-005 -1.59296e-006
          7.6   -0.00156377      0.001203      -8.99883  -1.4361e-006  4.48764e-005  2.06955e-006
         7.65   -0.00149885    0.00125115      -8.99884 -6.48828e-006  3.18672e-005  5.70863e-006
          7.7   -0.00143089    0.00129824      -8.99885 -1.16307e-005  1.85991e-005  9.31715e-006
         7.75   -0.00135995    0.00134417      -8.99887 -1.68564e-005  5.08998e-006  1.28881e-005
          7.8   -0.00128611    0.00138886      -8.99888 -2.21578e-005  -8.6417e-006  1.64145e-005
         7.85   -0.00120943    0.00143222       -8.9989 -2.75274e-005 -2.25768e-005  1.98898e-005
          7.9   -0.00113002    0.00147416      -8.99892 -3.29571e-005 -3.66956e-005  2.33072e-005
         7.95   -0.00104795     0.0015146      -8.99894 -3.84389e-005 -5.09776e-005  2.66605e-005
            8  -0.000963311    0.00155346      -8.99896 -4.39643e-005  -6.5402e-005  2.99434e-005
         8.05  -0.000876212    0.00159064      -8.99898 -4.95245e-005 -7.99471e-005  3.31501e-005
          8.1  -0.000786752    0.00162606      -8.99901 -5.51109e-005  -9.4591e-005  3.62747e-005
         8.15   -0.00069504    0.00165965      -8.99904 -6.07141e-005  -0.000109311  3.93119e-005
          8.2  -0.000601187    0.00169132      -8.99907  -6.6325e-005  -0.000124084  4.22565e-005
         8.25  -0.000505311    0.00172099       -8.9991  -7.1934e-005  -0.000138887  4.51036e-005
          8.3  -0.000407535    0.00174858      -8.99913 -7.75315e-005  -0.000153696  4.78487e-005
         8.35  -0.000307983    0.00177402      -8.99916 -8.31075e-005  -0.000168486  5.04875e-005
          8.4  -0.000206787    0.00179724       -8.9992 -8.86521e-005  -0.000183234  5.30162e-005
         8.45   -0.00010408    0.00181817      -8.99924 -9.41552e-005  -0.000197913  5.54312e-005
          8.5  -3.0892e-017    0.00183672      -8.99928 -9.96065e-005  -0.000212499  5.77294e-005
         8.55   0.000105312    0.00185285      -8.99932  -0.000104996  -0.000226967  5.99079e-005
          8.6   0.000211711    0.00186649      -8.99936  -0.000110312  -0.000241291  6.19643e-005
         8.65   0.000319049    0.00187757       -8.9994  -0.000115546  -0.000255444  6.38967e-005
          8.7   0.000427175    0.00188604      -8.99945  -0.000120685  -0.000269402  6.57034e-005
         8.75   0.000535936    0.00189184       -8.9995  -0.000125721  -0.000283138  6.73831e-005
          8.8   0.000645176    0.00189494      -8.99954  -0.000130641  -0.000296627   6.8935e-005
         8.85   0.000754736    0.00189527      -8.99959  -0.000135435  -0.000309841  7.03587e-005
          8.9   0.000864456    0.00189279      -8.99965  -0.000140094  -0.000322757   7.1654e-005
         8.95   0.000974174    0.00188748       -8.9997  -0.000144605  -0.000335346  7.28212e-005
            9    0.00108372    0.00187928      -8.99975  -0.000148959  -0.000347585   7.3861e-005
         9.05    0.00119294    0.00186817       -8.9998  -0.000153145  -0.000359448  7.47744e-005
          9.1    0.00130167    0.00185413      -8.99986  -0.000157152  -0.000370909  7.55625e-005
         9.15    0.00140972    0.00183713      -8.99992  -0.000160971  -0.000381944  7.62271e-005
          9.2    0.00151694    0.00181716      -8.99997  -0.000164591  -0.000392529    7.677e-005
         9.25    0.00162317    0.00179419      -9.00003  -0.000168002  -0.000402638  7.71933e-005
          9.3    0.00172822    0.00176822      -9.00009  -0.000171195  -0.000412249  7.74994e-005
         9.35    0.00183193    0.00173926      -9.00015   -0.00017416  -0.000421339  7.76907e-005
          9.4    0.00193414    0.00170729      -9.00021  -0.000176887  -0.000429885    7.777e-005
         9.45    0.00203467    0.00167232      -9.00027  -0.000179368  -0.000437865  7.77401e-005
          9.5    0.00213337    0.00163437      -9.00034  -0.000181593  -0.000445259  7.76039e-005
         9.55    0.00223006    0.00159344       -9.0004  -0.000183555  -0.000452044  7.73646e-005
          9.6    0.00232459    0.00154957      -9.00046  -0.000185244  -0.000458203  7.70252e-005
         9.65    0.00241678    0.00150277      -9.00052  -0.000186654  -0.000463715  7.65888e-005
          9.7    0.00250649    0.00145307      -9.00059  -0.000187777  -0.000468563  7.60583e-005
         9.75    0.00259356    0.00140052      -9.00065  -0.000188605   -0.00047273  7.54368e-005
          9.8    0.00267782    0.00134515      -9.00071  -0.000189132  -0.000476199  7.47271e-005
         9.85    0.00275913      0.001287      -9.00078  -0.000189352  -0.000478955  7.39322e-005
          9.9    0.00283734    0.00122613      -9.00084   -0.00018926  -0.000480985  7.30546e-005
         9.95     0.0029123    0.00116259       -9.0009  -0.000188849  -0.000482274  7.20971e-005
           10    0.00298388    0.00109644      -9.00097  -0.000188115  -0.000482812  7.10621e-005
        10.05    0.00305193    0.00102775      -9.00103  -0.000187055  -0.000482587   6.9952e-005
