hotint output data
notes: time (s), wave elevation (m), surge (m), heave (m), pitch (rads), flap 1 pitch (rads), flap 2 pitch (rads)
amplitude: -0.01m, period: 7s
            0            -0 -5.97378e-008            -9 -8.11396e-009 -1.35023e-007 -6.55302e-009
         0.05  7.47747e-007 -3.19411e-007            -9 -4.17293e-008 -6.61038e-007 -3.05096e-008
          0.1  2.98798e-006 -8.98107e-007            -9 -1.12207e-007 -1.67152e-006  -7.2422e-008
         0.15  6.71166e-006  -1.8678e-006            -9 -2.23267e-007  -3.1126e-006 -1.26138e-007
          0.2  1.19038e-005 -3.29042e-006            -9 -3.77752e-007 -4.93217e-006 -1.87877e-007
         0.25  1.85434e-005 -5.21862e-006            -9 -5.77663e-007  -7.0796e-006 -2.55717e-007
          0.3  2.66037e-005 -7.69631e-006            -9 -8.24216e-007 -9.50602e-006 -3.29238e-007
         0.35   3.6052e-005 -1.07592e-005      -9.00001 -1.11788e-006 -1.21644e-005 -4.09174e-007
          0.4    4.685e-005 -1.44353e-005      -9.00001 -1.45843e-006 -1.50091e-005 -4.97047e-007
         0.45  5.89538e-005 -1.87453e-005      -9.00001 -1.84494e-006 -1.79963e-005 -5.94947e-007
          0.5   7.2314e-005 -2.37028e-005      -9.00001 -2.27591e-006 -2.10842e-005 -7.05373e-007
         0.55  8.68759e-005  -2.9315e-005      -9.00001 -2.74923e-006 -2.42335e-005 -8.31068e-007
          0.6    0.00010258 -3.55823e-005      -9.00001 -3.26227e-006 -2.74072e-005 -9.74874e-007
         0.65   0.000119361 -4.24996e-005      -9.00002 -3.81192e-006 -3.05706e-005 -1.13961e-006
          0.7    0.00013715 -5.00557e-005      -9.00002 -4.39463e-006 -3.36919e-005 -1.32797e-006
         0.75   0.000155872 -5.82346e-005      -9.00002 -5.00647e-006 -3.67421e-005 -1.54251e-006
          0.8    0.00017545 -6.70153e-005      -9.00002 -5.64318e-006 -3.96948e-005 -1.78554e-006
         0.85   0.000195801 -7.63726e-005      -9.00003  -6.3002e-006 -4.25265e-005  -2.0591e-006
          0.9   0.000216838 -8.62772e-005      -9.00003 -6.97274e-006 -4.52163e-005  -2.3649e-006
         0.95   0.000238473 -9.66965e-005      -9.00003 -7.65583e-006 -4.77458e-005 -2.70435e-006
            1    0.00026061  -0.000107595      -9.00004 -8.34434e-006 -5.00991e-005 -3.07857e-006
         1.05   0.000283156  -0.000118933      -9.00004 -9.03304e-006 -5.22624e-005 -3.48835e-006
          1.1    0.00030601  -0.000130671      -9.00004 -9.71662e-006 -5.42243e-005 -3.93421e-006
         1.15   0.000329072  -0.000142766      -9.00005 -1.03898e-005 -5.59752e-005 -4.41639e-006
          1.2   0.000352238  -0.000155175      -9.00005 -1.10472e-005 -5.75071e-005 -4.93493e-006
         1.25   0.000375404  -0.000167851      -9.00005 -1.16836e-005 -5.88137e-005 -5.48966e-006
          1.3   0.000398462  -0.000180748      -9.00006 -1.22938e-005 -5.98899e-005 -6.08025e-006
         1.35   0.000421306  -0.000193822      -9.00006 -1.28728e-005 -6.07317e-005 -6.70627e-006
          1.4   0.000443826  -0.000207024      -9.00006 -1.34154e-005  -6.1336e-005 -7.36718e-006
         1.45   0.000465915  -0.000220308      -9.00007  -1.3917e-005 -6.17005e-005  -8.0624e-006
          1.5   0.000487464  -0.000233627      -9.00007 -1.43728e-005 -6.18233e-005 -8.79136e-006
         1.55   0.000508364  -0.000246936      -9.00007 -1.47785e-005 -6.17031e-005 -9.55349e-006
          1.6   0.000528507  -0.000260189      -9.00008 -1.51296e-005 -6.13387e-005 -1.03483e-005
         1.65   0.000547786  -0.000273341      -9.00008 -1.54222e-005 -6.07292e-005 -1.11753e-005
          1.7   0.000566096  -0.000286349      -9.00008 -1.56524e-005 -5.98737e-005 -1.20342e-005
         1.75   0.000583333  -0.000299168      -9.00008 -1.58167e-005 -5.87715e-005 -1.29249e-005
          1.8   0.000599396  -0.000311758      -9.00008 -1.59115e-005 -5.74218e-005 -1.38471e-005
         1.85   0.000614184  -0.000324076      -9.00009 -1.59339e-005  -5.5824e-005 -1.48009e-005
          1.9   0.000627602  -0.000336082      -9.00009 -1.58809e-005 -5.39773e-005 -1.57865e-005
         1.95   0.000639554  -0.000347738      -9.00009   -1.575e-005 -5.18812e-005 -1.68043e-005
            2   0.000649952  -0.000359004      -9.00009 -1.55388e-005 -4.95351e-005 -1.78545e-005
         2.05   0.000658708  -0.000369844      -9.00009 -1.52453e-005 -4.69389e-005 -1.89379e-005
          2.1    0.00066574   -0.00038022      -9.00009 -1.48678e-005 -4.40925e-005 -2.00548e-005
         2.15   0.000670968  -0.000390099      -9.00009 -1.44047e-005  -4.0996e-005 -2.12061e-005
          2.2    0.00067432  -0.000399444      -9.00009 -1.38548e-005 -3.76502e-005 -2.23925e-005
         2.25   0.000675727  -0.000408225      -9.00009 -1.32173e-005 -3.40561e-005 -2.36147e-005
          2.3   0.000675123  -0.000416407      -9.00009 -1.24915e-005 -3.02153e-005 -2.48734e-005
         2.35   0.000672452   -0.00042396      -9.00009 -1.16772e-005 -2.61298e-005 -2.61694e-005
          2.4   0.000667659  -0.000430853      -9.00009 -1.07744e-005 -2.18024e-005 -2.75033e-005
         2.45   0.000660697  -0.000437058      -9.00009 -9.78346e-006 -1.72366e-005 -2.88756e-005
          2.5   0.000651526  -0.000442547      -9.00008 -8.70497e-006 -1.24365e-005 -3.02868e-005
         2.55   0.000640111  -0.000447293      -9.00008 -7.53992e-006 -7.40714e-006 -3.17373e-005
          2.6   0.000626422  -0.000451271      -9.00008  -6.2896e-006 -2.15416e-006 -3.32271e-005
         2.65   0.000610439  -0.000454456      -9.00007  -4.9556e-006  3.31605e-006 -3.47563e-005
          2.7   0.000592145  -0.000456825      -9.00007 -3.53985e-006  8.99634e-006 -3.63245e-005
         2.75   0.000571532  -0.000458357      -9.00006 -2.04458e-006  1.48788e-005 -3.79313e-005
          2.8     0.0005486  -0.000459031      -9.00006 -4.72322e-007  2.09548e-005  -3.9576e-005
         2.85   0.000523352  -0.000458829      -9.00005  1.17406e-006  2.72151e-005 -4.12577e-005
          2.9   0.000495803  -0.000457733      -9.00005  2.89143e-006  3.36496e-005 -4.29751e-005
         2.95   0.000465971  -0.000455728      -9.00004  4.67634e-006  4.02476e-005 -4.47267e-005
            3   0.000433884  -0.000452798      -9.00003  6.52505e-006  4.69978e-005 -4.65109e-005
         3.05   0.000399575   -0.00044893      -9.00002  8.43356e-006  5.38881e-005 -4.83256e-005
          3.1   0.000363087  -0.000444113      -9.00002  1.03976e-005   6.0906e-005 -5.01686e-005
         3.15   0.000324468  -0.000438336      -9.00001  1.24126e-005  6.80383e-005 -5.20373e-005
          3.2   0.000283773  -0.000431591            -9  1.44737e-005  7.52711e-005  -5.3929e-005
         3.25   0.000241064   -0.00042387      -8.99999   1.6576e-005  8.25901e-005 -5.58406e-005
          3.3   0.000196413  -0.000415168      -8.99998  1.87143e-005  8.99803e-005 -5.77689e-005
         3.35   0.000149894   -0.00040548      -8.99997  2.08829e-005  9.74262e-005 -5.97104e-005
          3.4   0.000101591  -0.000394803      -8.99996  2.30763e-005   0.000104912 -6.16614e-005
         3.45  5.15946e-005  -0.000383136      -8.99995  2.52886e-005    0.00011242 -6.36178e-005
          3.5  4.80581e-018  -0.000370479      -8.99993  2.75137e-005   0.000119935 -6.55756e-005
         3.55   -5.309e-005  -0.000356833      -8.99992  2.97455e-005   0.000127437 -6.75305e-005
          3.6  -0.000107567  -0.000342201      -8.99991  3.19777e-005    0.00013491 -6.94778e-005
         3.65  -0.000163317  -0.000326587       -8.9999  3.42036e-005   0.000142335 -7.14129e-005
          3.7   -0.00022022  -0.000309998      -8.99988  3.64169e-005   0.000149692 -7.33309e-005
         3.75  -0.000278151  -0.000292441      -8.99987  3.86106e-005   0.000156963 -7.52267e-005
          3.8   -0.00033698  -0.000273924      -8.99986  4.07782e-005   0.000164127 -7.70951e-005
         3.85  -0.000396572  -0.000254458      -8.99984  4.29127e-005   0.000171166 -7.89307e-005
          3.9  -0.000456787  -0.000234056      -8.99983  4.50072e-005   0.000178058 -8.07282e-005
         3.95  -0.000517483  -0.000212731      -8.99981  4.70549e-005   0.000184784 -8.24818e-005
            4  -0.000578512  -0.000190498       -8.9998  4.90487e-005   0.000191323 -8.41858e-005
         4.05  -0.000639723  -0.000167373      -8.99978  5.09818e-005   0.000197655 -8.58344e-005
          4.1  -0.000700962  -0.000143376      -8.99977  5.28471e-005    0.00020376 -8.74217e-005
         4.15  -0.000762074  -0.000118526      -8.99975  5.46379e-005   0.000209618 -8.89417e-005
          4.2  -0.000822899 -9.28443e-005      -8.99974  5.63474e-005   0.000215208 -9.03883e-005
         4.25  -0.000883277 -6.63548e-005      -8.99972  5.79688e-005   0.000220512 -9.17554e-005
          4.3  -0.000943046 -3.90819e-005      -8.99971  5.94954e-005   0.000225509 -9.30369e-005
         4.35   -0.00100204 -1.10518e-005      -8.99969  6.09209e-005   0.000230182 -9.42265e-005
          4.4    -0.0010601  1.77078e-005      -8.99968  6.22388e-005   0.000234511 -9.53182e-005
         4.45   -0.00111706  4.71676e-005      -8.99966   6.3443e-005   0.000238479 -9.63058e-005
          4.5   -0.00117275  7.72969e-005      -8.99965  6.45275e-005   0.000242069 -9.71833e-005
         4.55   -0.00122701   0.000108064      -8.99963  6.54864e-005   0.000245263 -9.79446e-005
          4.6   -0.00127968   0.000139434      -8.99962  6.63143e-005   0.000248046 -9.85839e-005
         4.65    -0.0013306   0.000171374       -8.9996  6.70058e-005   0.000250402 -9.90952e-005
          4.7    -0.0013796   0.000203847      -8.99959  6.75557e-005   0.000252316  -9.9473e-005
         4.75   -0.00142653   0.000236815      -8.99957  6.79595e-005   0.000253776 -9.97118e-005
          4.8   -0.00147124   0.000270241      -8.99956  6.82124e-005   0.000254767 -9.98061e-005
         4.85   -0.00151358   0.000304083      -8.99955  6.83105e-005   0.000255278 -9.97509e-005
          4.9   -0.00155339   0.000338302      -8.99954  6.82497e-005   0.000255297 -9.95413e-005
         4.95   -0.00159054   0.000372855      -8.99952  6.80266e-005   0.000254815 -9.91726e-005
            5   -0.00162488   0.000407699      -8.99951   6.7638e-005   0.000253821 -9.86406e-005
         5.05   -0.00165628    0.00044279       -8.9995  6.70812e-005   0.000252308 -9.79411e-005
          5.1   -0.00168461   0.000478082      -8.99949  6.63536e-005   0.000250268 -9.70705e-005
         5.15   -0.00170976   0.000513529      -8.99948  6.54533e-005   0.000247696 -9.60253e-005
          5.2   -0.00173159   0.000549086      -8.99947  6.43786e-005   0.000244586 -9.48026e-005
         5.25      -0.00175   0.000584702      -8.99947  6.31283e-005   0.000240934 -9.33997e-005
          5.3   -0.00176489   0.000620331      -8.99946  6.17016e-005   0.000236739 -9.18147e-005
         5.35   -0.00177615   0.000655922      -8.99945  6.00981e-005   0.000231999 -9.00457e-005
          5.4   -0.00178371   0.000691426      -8.99945  5.83179e-005   0.000226713 -8.80915e-005
         5.45   -0.00178747   0.000726791      -8.99944  5.63614e-005   0.000220884 -8.59515e-005
          5.5   -0.00178737   0.000761967      -8.99944  5.42296e-005   0.000214513 -8.36254e-005
         5.55   -0.00178333   0.000796901      -8.99943  5.19238e-005   0.000207606 -8.11137e-005
          5.6   -0.00177531   0.000831541      -8.99943   4.9446e-005   0.000200166 -7.84172e-005
         5.65   -0.00176324   0.000865836      -8.99943  4.67982e-005   0.000192202 -7.55376e-005
          5.7    -0.0017471    0.00089973      -8.99943  4.39834e-005    0.00018372 -7.24769e-005
         5.75   -0.00172686   0.000933173      -8.99943  4.10046e-005   0.000174731  -6.9238e-005
          5.8   -0.00170248    0.00096611      -8.99943  3.78656e-005   0.000165244 -6.58243e-005
         5.85   -0.00167398   0.000998487      -8.99944  3.45702e-005   0.000155272 -6.22399e-005
          5.9   -0.00164133    0.00103025      -8.99944  3.11232e-005   0.000144829 -5.84894e-005
         5.95   -0.00160455    0.00106135      -8.99944  2.75293e-005   0.000133929 -5.45782e-005
            6   -0.00156366    0.00109173      -8.99945   2.3794e-005   0.000122587 -5.05125e-005
         6.05   -0.00151869    0.00112134      -8.99946  1.99231e-005    0.00011082 -4.62989e-005
          6.1   -0.00146968    0.00115013      -8.99947  1.59228e-005   9.8648e-005 -4.19447e-005
         6.15   -0.00141668    0.00117803      -8.99948  1.17996e-005  8.60892e-005  -3.7458e-005
          6.2   -0.00135974    0.00120501      -8.99949  7.56054e-006  7.31645e-005 -3.28473e-005
         6.25   -0.00129894    0.00123101       -8.9995    3.213e-006  5.98956e-005  -2.8122e-005
          6.3   -0.00123435    0.00125598      -8.99951 -1.23531e-006  4.63055e-005 -2.32918e-005
         6.35   -0.00116607    0.00127987      -8.99952 -5.77629e-006  3.24181e-005 -1.83671e-005
          6.4   -0.00109419    0.00130262      -8.99954 -1.04015e-005  1.82583e-005 -1.33588e-005
         6.45   -0.00101882     0.0013242      -8.99956 -1.51023e-005  3.85228e-006 -8.27835e-006
          6.5  -0.000940081    0.00134455      -8.99957 -1.98695e-005 -1.07732e-005 -3.13769e-006
         6.55  -0.000858105    0.00136363      -8.99959 -2.46939e-005 -2.55901e-005  2.05086e-006
          6.6  -0.000773025    0.00138138      -8.99961 -2.95657e-005 -4.05699e-005  7.27456e-006
         6.65  -0.000684988    0.00139778      -8.99963 -3.44752e-005 -5.56829e-005  1.25203e-005
          6.7  -0.000594149    0.00141276      -8.99965 -3.94122e-005 -7.08988e-005  1.77746e-005
         6.75  -0.000500672     0.0014263      -8.99967 -4.43664e-005 -8.61867e-005  2.30238e-005
          6.8  -0.000404729    0.00143835       -8.9997 -4.93272e-005  -0.000101515   2.8254e-005
         6.85  -0.000306499    0.00144888      -8.99972  -5.4284e-005  -0.000116851  3.34511e-005
          6.9   -0.00020617    0.00145783      -8.99975 -5.92258e-005  -0.000132162  3.86007e-005
         6.95  -0.000103937    0.00146519      -8.99977 -6.41416e-005  -0.000147416  4.36886e-005
            7 -3.58026e-017    0.00147091       -8.9998 -6.90203e-005  -0.000162578  4.87004e-005
         7.05   0.000105432    0.00147497      -8.99983 -7.38507e-005  -0.000177614  5.36218e-005
          7.1   0.000212146    0.00147734      -8.99986 -7.86213e-005  -0.000192491  5.84385e-005
         7.15   0.000319923    0.00147798      -8.99989  -8.3321e-005  -0.000207175  6.31363e-005
          7.2   0.000428537    0.00147688      -8.99992 -8.79382e-005   -0.00022163  6.77014e-005
         7.25   0.000537759    0.00147401      -8.99995 -9.24617e-005  -0.000235823  7.21199e-005
          7.3   0.000647356    0.00146934      -8.99998 -9.68799e-005   -0.00024972  7.63784e-005
         7.35   0.000757092    0.00146288      -9.00001  -0.000101182  -0.000263285  8.04637e-005
          7.4   0.000866725    0.00145459      -9.00004  -0.000105355  -0.000276486  8.43632e-005
         7.45   0.000976012    0.00144447      -9.00008   -0.00010939  -0.000289288  8.80644e-005
          7.5    0.00108471     0.0014325      -9.00011  -0.000113275  -0.000301659  9.15555e-005
         7.55    0.00119257    0.00141869      -9.00014  -0.000116999  -0.000313566  9.48252e-005
          7.6    0.00129934    0.00140302      -9.00018  -0.000120551  -0.000324976  9.78626e-005
         7.65    0.00140479    0.00138551      -9.00021  -0.000123921  -0.000335858   0.000100658
          7.7    0.00150865    0.00136614      -9.00024  -0.000127098  -0.000346181     0.0001032
         7.75    0.00161068    0.00134494      -9.00028  -0.000130073  -0.000355915   0.000105482
          7.8    0.00171064     0.0013219      -9.00031  -0.000132835   -0.00036503   0.000107495
         7.85    0.00180828    0.00129704      -9.00035  -0.000135374  -0.000373497   0.000109231
          7.9    0.00190336    0.00127038      -9.00038  -0.000137682  -0.000381291   0.000110683
         7.95    0.00199564    0.00124194      -9.00041   -0.00013975  -0.000388383   0.000111846
            8    0.00208488    0.00121175      -9.00045  -0.000141568   -0.00039475   0.000112714
         8.05    0.00217086    0.00117982      -9.00048  -0.000143129  -0.000400366   0.000113283
          8.1    0.00225335    0.00114619      -9.00051  -0.000144426  -0.000405209    0.00011355
         8.15    0.00233212     0.0011109      -9.00055  -0.000145449  -0.000409258   0.000113512
          8.2    0.00240696    0.00107399      -9.00058  -0.000146194  -0.000412494   0.000113167
         8.25    0.00247766     0.0010355      -9.00061  -0.000146652  -0.000414896   0.000112515
          8.3    0.00254403   0.000995465      -9.00064  -0.000146819  -0.000416448   0.000111556
         8.35    0.00260585   0.000953948      -9.00067  -0.000146688  -0.000417136    0.00011029
          8.4    0.00266296      0.000911       -9.0007  -0.000146255  -0.000416945   0.000108721
         8.45    0.00271516   0.000866676      -9.00073  -0.000145515  -0.000415862    0.00010685
          8.5     0.0027623   0.000821039      -9.00075  -0.000144465  -0.000413878   0.000104682
         8.55     0.0028042   0.000774154      -9.00078    -0.0001431  -0.000410984   0.000102222
          8.6    0.00284072   0.000726088      -9.00081  -0.000141419  -0.000407173  9.94755e-005
         8.65    0.00287173   0.000676913      -9.00083  -0.000139419   -0.00040244  9.64493e-005
          8.7    0.00289708   0.000626706      -9.00085  -0.000137098  -0.000396782  9.31512e-005
         8.75    0.00291667   0.000575543      -9.00088  -0.000134456  -0.000390197  8.95895e-005
          8.8    0.00293038   0.000523509       -9.0009  -0.000131493  -0.000382687  8.57738e-005
         8.85    0.00293812   0.000470688      -9.00092  -0.000128209  -0.000374253  8.17144e-005
          8.9    0.00293982   0.000417168      -9.00093  -0.000124604  -0.000364901  7.74221e-005
         8.95    0.00293539    0.00036304      -9.00095  -0.000120682  -0.000354637  7.29089e-005
            9    0.00292478     0.0003084      -9.00096  -0.000116443  -0.000343469  6.81871e-005
         9.05    0.00290795   0.000253344      -9.00098  -0.000111891  -0.000331408  6.32701e-005
          9.1    0.00288487   0.000197972      -9.00099   -0.00010703  -0.000318466  5.81715e-005
         9.15    0.00285552   0.000142386        -9.001  -0.000101865   -0.00030466  5.29056e-005
          9.2    0.00281989  8.66906e-005      -9.00101    -9.64e-005  -0.000290004  4.74873e-005
         9.25    0.00277799  3.09917e-005      -9.00101 -9.06413e-005  -0.000274518  4.19318e-005
          9.3    0.00272985 -2.46019e-005      -9.00102 -8.45956e-005  -0.000258223  3.62548e-005
         9.35     0.0026755 -7.99803e-005      -9.00102   -7.827e-005  -0.000241141   3.0472e-005
          9.4      0.002615  -0.000135032      -9.00102 -7.16725e-005  -0.000223297  2.45998e-005
         9.45     0.0025484  -0.000189643      -9.00102 -6.48118e-005  -0.000204718  1.86543e-005
          9.5     0.0024758  -0.000243701      -9.00102 -5.76972e-005  -0.000185433  1.26521e-005
         9.55    0.00239728   -0.00029709      -9.00102 -5.03389e-005  -0.000165472  6.60974e-006
          9.6    0.00231294  -0.000349696      -9.00101 -4.27475e-005  -0.000144868  5.43679e-007
         9.65    0.00222292  -0.000401402        -9.001 -3.49346e-005  -0.000123654 -5.52982e-006
          9.7    0.00212734  -0.000452093      -9.00099 -2.69121e-005  -0.000101868 -1.15947e-005
         9.75    0.00202634  -0.000501653      -9.00098  -1.8693e-005 -7.95462e-005 -1.76349e-005
          9.8     0.0019201  -0.000549968      -9.00097 -1.02907e-005 -5.67288e-005 -2.36351e-005
         9.85    0.00180878  -0.000596923      -9.00095 -1.71915e-006 -3.34568e-005 -2.95797e-005
          9.9    0.00169257  -0.000642405      -9.00094  7.00681e-006 -9.77273e-006  -3.5454e-005
         9.95    0.00157166  -0.000686302      -9.00092  1.58719e-005  1.42792e-005 -4.12435e-005
           10    0.00144628  -0.000728504       -9.0009  2.48602e-005  3.86535e-005  -4.6934e-005
        10.05    0.00131663  -0.000768904      -9.00087  3.39552e-005  6.33033e-005  -5.2512e-005
