hotint output data
notes: time (s), wave elevation (m), surge (m), heave (m), pitch (rads), flap 1 pitch (rads), flap 2 pitch (rads)
amplitude: -0.01m, period: 13s
            0            -0 -3.12248e-008            -9 -3.72958e-009 -3.22927e-008  2.84825e-008
         0.05  4.02729e-007 -1.57212e-007            -9 -1.88434e-008 -1.61362e-007  1.38968e-007
          0.1  1.61045e-006    -4.13e-007            -9 -4.96759e-008 -4.18897e-007  3.49852e-007
         0.15  3.62174e-006 -8.05037e-007            -9 -9.70749e-008  -8.0328e-007  6.48281e-007
          0.2  6.43426e-006 -1.34162e-006            -9 -1.61934e-007 -1.31169e-006  1.02221e-006
         0.25  1.00447e-005 -2.03258e-006            -9 -2.45168e-007 -1.94024e-006  1.46034e-006
          0.3  1.44489e-005 -2.88896e-006      -9.00001 -3.47689e-007 -2.68419e-006  1.95211e-006
         0.35  1.96417e-005 -3.92282e-006      -9.00001 -4.70394e-007 -3.53811e-006  2.48773e-006
          0.4  2.56169e-005 -5.14692e-006      -9.00001 -6.14138e-007 -4.49597e-006   3.0581e-006
         0.45  3.23676e-005 -6.57462e-006      -9.00001 -7.79725e-007 -5.55124e-006   3.6548e-006
          0.5  3.98859e-005 -8.21959e-006      -9.00001 -9.67895e-007 -6.69716e-006  4.27015e-006
         0.55   4.8163e-005 -1.00957e-005      -9.00002 -1.17931e-006 -7.92683e-006  4.89723e-006
          0.6  5.71891e-005 -1.22168e-005      -9.00002 -1.41455e-006 -9.23338e-006  5.52984e-006
         0.65  6.69537e-005 -1.45968e-005      -9.00002  -1.6741e-006   -1.061e-005  6.16251e-006
          0.7  7.74452e-005 -1.72493e-005      -9.00003 -1.95834e-006 -1.20501e-005  6.79049e-006
         0.75  8.86512e-005 -2.01875e-005      -9.00003 -2.26756e-006 -1.35474e-005  7.40974e-006
          0.8   0.000100559 -2.34245e-005      -9.00004 -2.60194e-006 -1.50961e-005  8.01693e-006
         0.85   0.000113153 -2.69727e-005      -9.00004 -2.96155e-006 -1.66906e-005  8.60937e-006
          0.9    0.00012642 -3.08443e-005      -9.00005 -3.34636e-006 -1.83259e-005  9.18497e-006
         0.95   0.000140344 -3.50508e-005      -9.00005 -3.75622e-006 -1.99974e-005   9.7422e-006
            1   0.000154908 -3.96031e-005      -9.00006 -4.19089e-006 -2.17009e-005  1.02801e-005
         1.05   0.000170094 -4.45119e-005      -9.00006 -4.65001e-006 -2.34329e-005   1.0798e-005
          1.1   0.000185885 -4.97869e-005      -9.00007 -5.13313e-006 -2.51901e-005  1.12958e-005
         1.15   0.000202262 -5.54377e-005      -9.00008  -5.6397e-006 -2.69698e-005  1.17737e-005
          1.2   0.000219205 -6.14731e-005      -9.00009 -6.16908e-006 -2.87693e-005  1.22322e-005
         1.25   0.000236694 -6.79016e-005      -9.00009 -6.72054e-006 -3.05868e-005  1.26718e-005
          1.3   0.000254707 -7.47309e-005       -9.0001 -7.29325e-006 -3.24204e-005  1.30936e-005
         1.35   0.000273223 -8.19686e-005      -9.00011 -7.88632e-006 -3.42684e-005  1.34983e-005
          1.4    0.00029222 -8.96218e-005      -9.00012 -8.49878e-006 -3.61295e-005   1.3887e-005
         1.45   0.000311674  -9.7697e-005      -9.00013 -9.12958e-006 -3.80023e-005  1.42607e-005
          1.5   0.000331561  -0.000106201      -9.00014  -9.7776e-006 -3.98858e-005  1.46203e-005
         1.55   0.000351858  -0.000115139      -9.00015 -1.04417e-005 -4.17785e-005  1.49666e-005
          1.6   0.000372539  -0.000124517      -9.00016 -1.11206e-005 -4.36795e-005  1.53004e-005
         1.65   0.000393579  -0.000134341      -9.00017  -1.1813e-005 -4.55872e-005  1.56224e-005
          1.7   0.000414952  -0.000144616      -9.00018 -1.25176e-005 -4.75004e-005  1.59329e-005
         1.75   0.000436631  -0.000155347      -9.00019  -1.3233e-005 -4.94174e-005  1.62323e-005
          1.8   0.000458589  -0.000166539       -9.0002 -1.39579e-005 -5.13367e-005  1.65205e-005
         1.85   0.000480799  -0.000178196      -9.00021 -1.46906e-005 -5.32563e-005  1.67976e-005
          1.9   0.000503233  -0.000190324      -9.00023 -1.54298e-005 -5.51743e-005  1.70632e-005
         1.95   0.000525861  -0.000202926      -9.00024 -1.61739e-005 -5.70883e-005   1.7317e-005
            2   0.000548656  -0.000216007      -9.00025 -1.69214e-005  -5.8996e-005  1.75582e-005
         2.05   0.000571588  -0.000229571      -9.00027 -1.76706e-005 -6.08948e-005  1.77861e-005
          2.1   0.000594628  -0.000243622      -9.00028   -1.842e-005  -6.2782e-005  1.79997e-005
         2.15   0.000617745  -0.000258164      -9.00029  -1.9168e-005 -6.46547e-005  1.81982e-005
          2.2    0.00064091  -0.000273201      -9.00031 -1.99129e-005 -6.65098e-005  1.83803e-005
         2.25   0.000664092  -0.000288737      -9.00032 -2.06531e-005 -6.83442e-005  1.85448e-005
          2.3   0.000687261  -0.000304774      -9.00034 -2.13869e-005 -7.01547e-005  1.86904e-005
         2.35   0.000710385  -0.000321316      -9.00035 -2.21127e-005 -7.19377e-005  1.88157e-005
          2.4   0.000733434  -0.000338367      -9.00037 -2.28288e-005   -7.369e-005  1.89195e-005
         2.45   0.000756376  -0.000355928      -9.00038 -2.35335e-005 -7.54081e-005  1.90002e-005
          2.5    0.00077918  -0.000374004       -9.0004 -2.42252e-005 -7.70885e-005  1.90565e-005
         2.55   0.000801815  -0.000392596      -9.00041 -2.49022e-005 -7.87278e-005  1.90869e-005
          2.6   0.000824249  -0.000411707      -9.00043 -2.55628e-005 -8.03224e-005  1.90902e-005
         2.65    0.00084645  -0.000431338      -9.00045 -2.62055e-005 -8.18688e-005  1.90648e-005
          2.7   0.000868388  -0.000451492      -9.00046 -2.68286e-005 -8.33637e-005  1.90095e-005
         2.75    0.00089003  -0.000472169      -9.00048 -2.74304e-005 -8.48034e-005   1.8923e-005
          2.8   0.000911345  -0.000493372      -9.00049 -2.80094e-005 -8.61846e-005  1.88039e-005
         2.85   0.000932302    -0.0005151      -9.00051 -2.85641e-005 -8.75039e-005   1.8651e-005
          2.9   0.000952869  -0.000537354      -9.00053 -2.90928e-005 -8.87579e-005  1.84631e-005
         2.95   0.000973015  -0.000560135      -9.00054 -2.95941e-005 -8.99434e-005   1.8239e-005
            3   0.000992709  -0.000583442      -9.00056 -3.00665e-005 -9.10569e-005  1.79777e-005
         3.05    0.00101192  -0.000607273      -9.00058 -3.05085e-005 -9.20953e-005  1.76781e-005
          3.1    0.00103062  -0.000631629      -9.00059 -3.09187e-005 -9.30554e-005  1.73392e-005
         3.15    0.00104877  -0.000656507      -9.00061 -3.12956e-005  -9.3934e-005  1.69601e-005
          3.2    0.00106636  -0.000681905      -9.00063  -3.1638e-005  -9.4728e-005  1.65399e-005
         3.25    0.00108333  -0.000707821      -9.00064 -3.19446e-005 -9.54346e-005  1.60778e-005
          3.3    0.00109968  -0.000734251      -9.00066  -3.2214e-005 -9.60506e-005  1.55731e-005
         3.35    0.00111536  -0.000761192      -9.00068 -3.24451e-005 -9.65733e-005  1.50252e-005
          3.4    0.00113036   -0.00078864      -9.00069 -3.26366e-005 -9.69998e-005  1.44336e-005
         3.45    0.00114463  -0.000816588      -9.00071 -3.27874e-005 -9.73276e-005  1.37977e-005
          3.5    0.00115816  -0.000845033      -9.00072 -3.28965e-005  -9.7554e-005  1.31172e-005
         3.55    0.00117092  -0.000873967      -9.00074 -3.29628e-005 -9.76766e-005  1.23919e-005
          3.6    0.00118287  -0.000903384      -9.00076 -3.29853e-005  -9.7693e-005  1.16216e-005
         3.65      0.001194  -0.000933275      -9.00077  -3.2963e-005 -9.76012e-005  1.08063e-005
          3.7    0.00120428  -0.000963634      -9.00078 -3.28952e-005  -9.7399e-005  9.94606e-006
         3.75    0.00121368   -0.00099445       -9.0008 -3.27809e-005 -9.70847e-005  9.04101e-006
          3.8    0.00122218   -0.00102571      -9.00081 -3.26195e-005 -9.66564e-005  8.09144e-006
         3.85    0.00122975   -0.00105742      -9.00083 -3.24102e-005 -9.61125e-005  7.09776e-006
          3.9    0.00123637   -0.00108954      -9.00084 -3.21523e-005 -9.54518e-005  6.06046e-006
         3.95    0.00124203   -0.00112208      -9.00085 -3.18453e-005 -9.46729e-005  4.98015e-006
            4    0.00124669   -0.00115503      -9.00087 -3.14887e-005 -9.37749e-005  3.85755e-006
         4.05    0.00125034   -0.00118835      -9.00088 -3.10821e-005 -9.27567e-005  2.69346e-006
          4.1    0.00125295   -0.00122205      -9.00089  -3.0625e-005 -9.16177e-005  1.48881e-006
         4.15    0.00125451   -0.00125611       -9.0009 -3.01171e-005 -9.03572e-005  2.44603e-007
          4.2      0.001255   -0.00129051      -9.00091 -2.95581e-005 -8.89749e-005 -1.03805e-006
         4.25     0.0012544   -0.00132523      -9.00092 -2.89479e-005 -8.74705e-005 -2.35796e-006
          4.3    0.00125269   -0.00136025      -9.00093 -2.82865e-005 -8.58439e-005 -3.71382e-006
         4.35    0.00124986   -0.00139556      -9.00094 -2.75736e-005 -8.40952e-005 -5.10426e-006
          4.4    0.00124589   -0.00143114      -9.00095 -2.68093e-005 -8.22245e-005 -6.52781e-006
         4.45    0.00124076   -0.00146696      -9.00095 -2.59938e-005 -8.02323e-005 -7.98294e-006
          4.5    0.00123448   -0.00150301      -9.00096 -2.51272e-005  -7.8119e-005   -9.468e-006
         4.55    0.00122701   -0.00153926      -9.00097 -2.42097e-005 -7.58852e-005 -1.09813e-005
          4.6    0.00121835   -0.00157568      -9.00097 -2.32416e-005 -7.35319e-005  -1.2521e-005
         4.65     0.0012085   -0.00161226      -9.00098 -2.22233e-005 -7.10599e-005 -1.40853e-005
          4.7    0.00119743   -0.00164897      -9.00098 -2.11553e-005 -6.84704e-005 -1.56722e-005
         4.75    0.00118514   -0.00168578      -9.00098  -2.0038e-005 -6.57647e-005 -1.72797e-005
          4.8    0.00117163   -0.00172267      -9.00099 -1.88721e-005 -6.29443e-005 -1.89058e-005
         4.85    0.00115688   -0.00175961      -9.00099 -1.76581e-005 -6.00106e-005 -2.05482e-005
          4.9     0.0011409   -0.00179657      -9.00099 -1.63969e-005 -5.69657e-005 -2.22048e-005
         4.95    0.00112368   -0.00183353      -9.00099 -1.50892e-005 -5.38113e-005 -2.38734e-005
            5     0.0011052   -0.00187044      -9.00099 -1.37359e-005 -5.05496e-005 -2.55516e-005
         5.05    0.00108548   -0.00190729      -9.00098  -1.2338e-005 -4.71828e-005  -2.7237e-005
          5.1    0.00106451   -0.00194404      -9.00098 -1.08963e-005 -4.37135e-005 -2.89274e-005
         5.15     0.0010423   -0.00198066      -9.00098  -9.4121e-006 -4.01442e-005 -3.06202e-005
          5.2    0.00101883   -0.00201711      -9.00097 -7.88644e-006 -3.64776e-005 -3.23131e-005
         5.25   0.000994113   -0.00205337      -9.00097 -6.32056e-006 -3.27167e-005 -3.40037e-005
          5.3   0.000968155    -0.0020894      -9.00096 -4.71575e-006 -2.88645e-005 -3.56894e-005
         5.35   0.000940958   -0.00212516      -9.00095 -3.07335e-006 -2.49242e-005  -3.7368e-005
          5.4   0.000912528   -0.00216062      -9.00094  -1.3948e-006 -2.08991e-005 -3.90369e-005
         5.45    0.00088287   -0.00219575      -9.00093  3.18429e-007 -1.67926e-005 -4.06939e-005
          5.5   0.000851992   -0.00223051      -9.00092  2.06477e-006 -1.26084e-005 -4.23366e-005
         5.55   0.000819904   -0.00226486      -9.00091  3.84261e-006 -8.35008e-006 -4.39626e-005
          5.6   0.000786615   -0.00229877      -9.00089  5.65027e-006  -4.0215e-006 -4.55699e-005
         5.65   0.000752137    -0.0023322      -9.00088    7.486e-006  3.73439e-007 -4.71563e-005
          5.7    0.00071648   -0.00236511      -9.00086  9.34799e-006   4.8307e-006 -4.87195e-005
         5.75   0.000679659   -0.00239746      -9.00084  1.12344e-005  9.34617e-006 -5.02578e-005
          5.8   0.000641689   -0.00242922      -9.00083  1.31432e-005  1.39156e-005  -5.1769e-005
         5.85   0.000602583   -0.00246035      -9.00081  1.50726e-005  1.85346e-005 -5.32515e-005
          5.9    0.00056236   -0.00249081      -9.00079  1.70204e-005  2.31989e-005 -5.47035e-005
         5.95   0.000521036   -0.00252056      -9.00076  1.89845e-005  2.79038e-005 -5.61233e-005
            6   0.000478631   -0.00254957      -9.00074  2.09628e-005  3.26447e-005 -5.75095e-005
         6.05   0.000435165   -0.00257779      -9.00072  2.29531e-005  3.74169e-005 -5.88606e-005
          6.1   0.000390658   -0.00260519      -9.00069  2.49531e-005  4.22157e-005 -6.01754e-005
         6.15   0.000345132   -0.00263173      -9.00067  2.69606e-005   4.7036e-005 -6.14527e-005
          6.2   0.000298611   -0.00265737      -9.00064  2.89732e-005   5.1873e-005 -6.26914e-005
         6.25   0.000251118   -0.00268208      -9.00061  3.09885e-005  5.67216e-005 -6.38908e-005
          6.3   0.000202679   -0.00270582      -9.00058   3.3004e-005  6.15767e-005 -6.50498e-005
         6.35    0.00015332   -0.00272854      -9.00055  3.50174e-005  6.64331e-005  -6.6168e-005
          6.4   0.000103069   -0.00275022      -9.00052   3.7026e-005  7.12857e-005 -6.72447e-005
         6.45  5.19521e-005   -0.00277082      -9.00048  3.90274e-005  7.61291e-005 -6.82796e-005
          6.5  1.66226e-017   -0.00279029      -9.00045  4.10191e-005  8.09581e-005 -6.92723e-005
         6.55 -5.27575e-005   -0.00280862      -9.00041  4.29983e-005  8.57673e-005 -7.02227e-005
          6.6  -0.000106289   -0.00282575      -9.00038  4.49625e-005  9.05514e-005 -7.11307e-005
         6.65  -0.000160564   -0.00284166      -9.00034  4.69091e-005   9.5305e-005 -7.19965e-005
          6.7  -0.000215548   -0.00285632       -9.0003  4.88355e-005   0.000100023 -7.28201e-005
         6.75  -0.000271208   -0.00286969      -9.00026  5.07388e-005   0.000104699  -7.3602e-005
          6.8  -0.000327509   -0.00288174      -9.00022  5.26166e-005   0.000109329 -7.43424e-005
         6.85  -0.000384415   -0.00289244      -9.00018  5.44661e-005   0.000113907 -7.50419e-005
          6.9  -0.000441891   -0.00290176      -9.00013  5.62847e-005   0.000118428 -7.57011e-005
         6.95    -0.0004999   -0.00290966      -9.00009  5.80696e-005   0.000122886 -7.63206e-005
            7  -0.000558403   -0.00291613      -9.00004  5.98183e-005   0.000127276 -7.69011e-005
         7.05  -0.000617362   -0.00292113            -9  6.15281e-005   0.000131592 -7.74435e-005
          7.1  -0.000676738   -0.00292464      -8.99995  6.31964e-005    0.00013583 -7.79487e-005
         7.15  -0.000736491   -0.00292663       -8.9999  6.48205e-005   0.000139984 -7.84176e-005
          7.2  -0.000796579   -0.00292708      -8.99985  6.63979e-005   0.000144049 -7.88512e-005
         7.25  -0.000856962   -0.00292597       -8.9998  6.79261e-005    0.00014802 -7.92504e-005
          7.3  -0.000917597   -0.00292327      -8.99975  6.94025e-005   0.000151892 -7.96164e-005
         7.35  -0.000978443   -0.00291897       -8.9997  7.08246e-005    0.00015566 -7.99503e-005
          7.4   -0.00103946   -0.00291304      -8.99965  7.21901e-005   0.000159318 -8.02531e-005
         7.45   -0.00110059   -0.00290547      -8.99959  7.34965e-005   0.000162862  -8.0526e-005
          7.5   -0.00116181   -0.00289623      -8.99954  7.47415e-005   0.000166288 -8.07701e-005
         7.55   -0.00122306   -0.00288532      -8.99949  7.59228e-005   0.000169589 -8.09866e-005
          7.6    -0.0012843   -0.00287273      -8.99943  7.70383e-005   0.000172763 -8.11766e-005
         7.65   -0.00134548   -0.00285843      -8.99937  7.80857e-005   0.000175803 -8.13414e-005
          7.7   -0.00140657   -0.00284242      -8.99932   7.9063e-005   0.000178707 -8.14819e-005
         7.75    -0.0014675   -0.00282469      -8.99926  7.99681e-005   0.000181468 -8.15995e-005
          7.8   -0.00152824   -0.00280523       -8.9992  8.07991e-005   0.000184084 -8.16951e-005
         7.85   -0.00158874   -0.00278404      -8.99914  8.15542e-005   0.000186551 -8.17699e-005
          7.9   -0.00164895   -0.00276111      -8.99909  8.22316e-005   0.000188863 -8.18249e-005
         7.95   -0.00170883   -0.00273643      -8.99903  8.28296e-005   0.000191018 -8.18612e-005
            8   -0.00176833      -0.00271      -8.99897  8.33465e-005   0.000193012 -8.18799e-005
         8.05   -0.00182739   -0.00268183      -8.99891  8.37809e-005   0.000194841 -8.18817e-005
          8.1   -0.00188598   -0.00265192      -8.99885  8.41313e-005   0.000196502 -8.18677e-005
         8.15   -0.00194404   -0.00262027      -8.99879  8.43965e-005   0.000197991 -8.18386e-005
          8.2   -0.00200153   -0.00258688      -8.99873  8.45751e-005   0.000199306 -8.17954e-005
         8.25    -0.0020584   -0.00255176      -8.99866  8.46662e-005   0.000200444 -8.17385e-005
          8.3   -0.00211461   -0.00251491       -8.9986  8.46687e-005   0.000201401 -8.16688e-005
         8.35   -0.00217009   -0.00247636      -8.99854  8.45817e-005   0.000202175 -8.15867e-005
          8.4   -0.00222482    -0.0024361      -8.99848  8.44044e-005   0.000202765 -8.14927e-005
         8.45   -0.00227873   -0.00239415      -8.99842  8.41361e-005   0.000203167 -8.13871e-005
          8.5   -0.00233179   -0.00235053      -8.99836  8.37764e-005   0.000203379 -8.12701e-005
         8.55   -0.00238394   -0.00230524       -8.9983  8.33247e-005     0.0002034  -8.1142e-005
          8.6   -0.00243514   -0.00225832      -8.99824  8.27809e-005   0.000203228 -8.10028e-005
         8.65   -0.00248535   -0.00220977      -8.99818  8.21446e-005   0.000202862 -8.08523e-005
          8.7   -0.00253451   -0.00215962      -8.99812   8.1416e-005   0.000202301 -8.06903e-005
         8.75   -0.00258258    -0.0021079      -8.99806  8.05949e-005   0.000201543 -8.05166e-005
          8.8   -0.00262952   -0.00205461        -8.998  7.96817e-005   0.000200588 -8.03306e-005
         8.85   -0.00267528    -0.0019998      -8.99794  7.86767e-005   0.000199436 -8.01318e-005
          8.9   -0.00271982   -0.00194348      -8.99788  7.75804e-005   0.000198086 -7.99195e-005
         8.95   -0.00276309   -0.00188568      -8.99783  7.63934e-005   0.000196538 -7.96928e-005
            9   -0.00280505   -0.00182644      -8.99777  7.51164e-005   0.000194793 -7.94509e-005
         9.05   -0.00284566   -0.00176578      -8.99771  7.37503e-005   0.000192851 -7.91927e-005
          9.1   -0.00288487   -0.00170374      -8.99766  7.22962e-005   0.000190713 -7.89171e-005
         9.15   -0.00292265   -0.00164035       -8.9976  7.07551e-005   0.000188379 -7.86228e-005
          9.2   -0.00295895   -0.00157564      -8.99755  6.91284e-005   0.000185852 -7.83086e-005
         9.25   -0.00299374   -0.00150966       -8.9975  6.74175e-005   0.000183132  -7.7973e-005
          9.3   -0.00302697   -0.00144243      -8.99744  6.56239e-005   0.000180221 -7.76146e-005
         9.35    -0.0030586     -0.001374      -8.99739  6.37492e-005   0.000177122 -7.72319e-005
          9.4   -0.00308861   -0.00130442      -8.99734  6.17954e-005   0.000173836 -7.68233e-005
         9.45   -0.00311695   -0.00123371      -8.99729  5.97644e-005   0.000170367 -7.63872e-005
          9.5   -0.00314358   -0.00116192      -8.99725   5.7658e-005   0.000166716 -7.59221e-005
         9.55   -0.00316847   -0.00108909       -8.9972  5.54786e-005   0.000162886 -7.54264e-005
          9.6   -0.00319159   -0.00101528      -8.99716  5.32285e-005   0.000158881 -7.48985e-005
         9.65   -0.00321291  -0.000940518      -8.99711  5.09099e-005   0.000154705 -7.43368e-005
          9.7   -0.00323239  -0.000864858      -8.99707  4.85253e-005   0.000150361 -7.37399e-005
         9.75      -0.00325  -0.000788346      -8.99703  4.60775e-005   0.000145852 -7.31063e-005
          9.8   -0.00326571  -0.000711031      -8.99699   4.3569e-005   0.000141183 -7.24347e-005
         9.85    -0.0032795  -0.000632961      -8.99695  4.10026e-005   0.000136359 -7.17238e-005
          9.9   -0.00329133  -0.000554187      -8.99692  3.83812e-005   0.000131383 -7.09725e-005
         9.95   -0.00330118   -0.00047476      -8.99688  3.57077e-005   0.000126261 -7.01795e-005
           10   -0.00330903  -0.000394731      -8.99685  3.29852e-005   0.000120997  -6.9344e-005
        10.05   -0.00331485  -0.000314153      -8.99682  3.02167e-005   0.000115597 -6.84651e-005
