hotint output data
notes: time (s), wave elevation (m), surge (m), heave (m), pitch (rads), flap 1 pitch (rads), flap 2 pitch (rads)
amplitude: -0.01m, period: 5s
            0            -0  4.43384e-008            -9 -6.09259e-010 -1.14084e-007 -1.93914e-008
         0.05  1.04651e-006  2.02606e-007            -9 -3.61496e-009 -5.43111e-007 -8.59747e-008
          0.1  4.17777e-006  4.68072e-007            -9 -1.09339e-008 -1.32151e-006 -1.88421e-007
         0.15  9.36907e-006  7.88298e-007            -9 -2.32991e-008  -2.3488e-006 -2.91345e-007
          0.2  1.65793e-005  1.13242e-006            -9 -4.00529e-008 -3.53236e-006 -3.66943e-007
         0.25  2.57514e-005  1.48848e-006            -9 -5.93386e-008 -4.78684e-006 -3.93903e-007
          0.3  3.68125e-005  1.86121e-006            -9 -7.82791e-008 -6.03405e-006 -3.56548e-007
         0.35  4.96743e-005  2.26997e-006            -9 -9.31444e-008 -7.20274e-006 -2.44043e-007
          0.4  6.42338e-005  2.74667e-006            -9 -9.95049e-008 -8.22811e-006 -4.96421e-008
         0.45   8.0374e-005  3.33411e-006            -9 -9.23757e-008 -9.05176e-006  2.29909e-007
          0.5  9.79642e-005  4.08443e-006            -9 -6.63553e-008 -9.62182e-006  5.94879e-007
         0.55   0.000116861  5.05756e-006            -9 -1.57561e-008 -9.89279e-006  1.04304e-006
          0.6   0.000136909  6.31983e-006            -9  6.52715e-008  -9.8255e-006  1.57012e-006
         0.65   0.000157943  7.94252e-006            -9  1.82626e-007 -9.38691e-006  2.17016e-006
          0.7   0.000179786  1.00006e-005            -9  3.42145e-007 -8.54999e-006  2.83591e-006
         0.75   0.000202254  1.25717e-005            -9  5.49505e-007 -7.29362e-006  3.55908e-006
          0.8   0.000225154  1.57345e-005      -8.99999  8.10129e-007  -5.6024e-006  4.33067e-006
         0.85   0.000248287  1.95679e-005      -8.99999   1.1291e-006 -3.46629e-006   5.1412e-006
          0.9   0.000271448  2.41502e-005      -8.99999  1.51108e-006 -8.80343e-007  5.98093e-006
         0.95   0.000294429  2.95576e-005      -8.99999  1.96028e-006  2.15558e-006  6.84005e-006
            1   0.000317019  3.58638e-005      -8.99999  2.48032e-006  5.63716e-006  7.70881e-006
         1.05   0.000339004  4.31391e-005      -8.99999  3.07429e-006  9.55593e-006  8.57769e-006
          1.1   0.000360172  5.14496e-005      -8.99998   3.7446e-006  1.38996e-005  9.43748e-006
         1.15   0.000380311  6.08563e-005      -8.99998  4.49302e-006  1.86526e-005  1.02794e-005
          1.2   0.000399211  7.14153e-005      -8.99998  5.32062e-006   2.3796e-005   1.1095e-005
         1.25   0.000416667  8.31765e-005      -8.99998  6.22778e-006  2.93083e-005  1.18766e-005
          1.3   0.000432478  9.61838e-005      -8.99997  7.21412e-006  3.51656e-005  1.26167e-005
         1.35   0.000446452   0.000110474      -8.99997  8.27859e-006  4.13419e-005  1.33087e-005
          1.4   0.000458401   0.000126079      -8.99997  9.41936e-006  4.78094e-005  1.39464e-005
         1.45   0.000468149    0.00014302      -8.99996  1.06339e-005  5.45387e-005  1.45241e-005
          1.5   0.000475528   0.000161315      -8.99996  1.19191e-005  6.14992e-005  1.50366e-005
         1.55   0.000480385   0.000180974      -8.99996  1.32709e-005  6.86592e-005  1.54794e-005
          1.6   0.000482574   0.000201997      -8.99995  1.46848e-005  7.59864e-005  1.58483e-005
         1.65   0.000481969   0.000224381      -8.99995  1.61556e-005  8.34476e-005  1.61395e-005
          1.7   0.000478452   0.000248114      -8.99994  1.76775e-005  9.10091e-005  1.63497e-005
         1.75   0.000471927   0.000273177      -8.99994  1.92441e-005  9.86369e-005  1.64762e-005
          1.8   0.000462308   0.000299546      -8.99993  2.08485e-005   0.000106297  1.65163e-005
         1.85   0.000449531   0.000327189      -8.99993  2.24833e-005   0.000113955  1.64679e-005
          1.9   0.000433547   0.000356068      -8.99992  2.41406e-005   0.000121576  1.63291e-005
         1.95   0.000414326   0.000386141      -8.99992  2.58121e-005   0.000129126  1.60985e-005
            2   0.000391857   0.000417359      -8.99991  2.74891e-005   0.000136571  1.57749e-005
         2.05   0.000366148   0.000449667       -8.9999  2.91627e-005   0.000143876  1.53575e-005
          2.1   0.000337228   0.000483007       -8.9999  3.08234e-005   0.000151008  1.48457e-005
         2.15   0.000305142   0.000517314      -8.99989  3.24618e-005   0.000157933  1.42394e-005
          2.2   0.000269958   0.000552521      -8.99989   3.4068e-005   0.000164618  1.35388e-005
         2.25   0.000231763   0.000588555      -8.99988  3.56324e-005    0.00017103  1.27445e-005
          2.3   0.000190662   0.000625341      -8.99988  3.71447e-005   0.000177138  1.18575e-005
         2.35   0.000146782   0.000662799      -8.99987  3.85951e-005   0.000182909  1.08792e-005
          2.4   0.000100267   0.000700847      -8.99986  3.99735e-005   0.000188313  9.81143e-006
         2.45  5.12789e-005   0.000739401      -8.99986  4.12698e-005    0.00019332  8.65642e-006
          2.5  1.21228e-018   0.000778373      -8.99985  4.24743e-005   0.000197902  7.41695e-006
         2.55 -5.33719e-005   0.000817673      -8.99985  4.35771e-005   0.000202031  6.09623e-006
          2.6  -0.000108622   0.000857211      -8.99984  4.45688e-005   0.000205681  4.69796e-006
         2.65   -0.00016552   0.000896894      -8.99984  4.54401e-005   0.000208826  3.22635e-006
          2.7  -0.000223821   0.000936629      -8.99983   4.6182e-005   0.000211443  1.68607e-006
         2.75  -0.000283266   0.000976323      -8.99983  4.67859e-005   0.000213511  8.22709e-008
          2.8  -0.000343583    0.00101588      -8.99982  4.72437e-005    0.00021501 -1.57943e-006
         2.85   -0.00040449    0.00105521      -8.99982  4.75475e-005   0.000215921 -3.29296e-006
          2.9  -0.000465695    0.00109422      -8.99981  4.76902e-005   0.000216229 -5.05183e-006
         2.95  -0.000526896    0.00113281      -8.99981  4.76651e-005    0.00021592 -6.84915e-006
            3  -0.000587785     0.0011709      -8.99981   4.7466e-005   0.000214982 -8.67768e-006
         3.05  -0.000648048    0.00120839       -8.9998  4.70876e-005   0.000213407 -1.05298e-005
          3.1  -0.000707365    0.00124521       -8.9998  4.65249e-005   0.000211188 -1.23977e-005
         3.15  -0.000765417    0.00128126       -8.9998   4.5774e-005    0.00020832 -1.42732e-005
          3.2  -0.000821881    0.00131646       -8.9998  4.48316e-005   0.000204802 -1.61479e-005
         3.25  -0.000876435    0.00135074      -8.99979   4.3695e-005   0.000200634 -1.80133e-005
          3.3  -0.000928761    0.00138403      -8.99979  4.23625e-005   0.000195821 -1.98608e-005
         3.35  -0.000978542    0.00141624      -8.99979  4.08334e-005   0.000190367 -2.16815e-005
          3.4   -0.00102547    0.00144732      -8.99979  3.91073e-005   0.000184281 -2.34667e-005
         3.45   -0.00106924     0.0014772      -8.99979  3.71853e-005   0.000177575 -2.52076e-005
          3.5   -0.00110957    0.00150583       -8.9998   3.5069e-005   0.000170263 -2.68953e-005
         3.55   -0.00114616    0.00153316       -8.9998   3.2761e-005    0.00016236  -2.8521e-005
          3.6   -0.00117874    0.00155913       -8.9998  3.02648e-005   0.000153887 -3.00763e-005
         3.65   -0.00120707    0.00158371       -8.9998  2.75847e-005   0.000144863 -3.15524e-005
          3.7    -0.0012309    0.00160686      -8.99981  2.47262e-005   0.000135313 -3.29411e-005
         3.75      -0.00125    0.00162855      -8.99981  2.16953e-005   0.000125264 -3.42343e-005
          3.8   -0.00126417    0.00164876      -8.99981  1.84992e-005   0.000114744  -3.5424e-005
         3.85   -0.00127321    0.00166747      -8.99982  1.51458e-005   0.000103784 -3.65025e-005
          3.9   -0.00127697    0.00168466      -8.99983  1.16439e-005  9.24176e-005 -3.74626e-005
         3.95    -0.0012753    0.00170033      -8.99983  8.00328e-006  8.06802e-005 -3.82971e-005
            4   -0.00126808    0.00171449      -8.99984  4.23427e-006  6.86092e-005 -3.89994e-005
         4.05    -0.0012552    0.00172712      -8.99985  3.48149e-007  5.62442e-005 -3.95632e-005
          4.1    -0.0012366    0.00173826      -8.99986 -3.64307e-006  4.36265e-005 -3.99826e-005
         4.15   -0.00121222    0.00174792      -8.99986 -7.72668e-006  3.07993e-005 -4.02523e-005
          4.2   -0.00118206    0.00175611      -8.99987 -1.18893e-005  1.78071e-005 -4.03674e-005
         4.25   -0.00114611    0.00176288      -8.99988 -1.61168e-005   4.6961e-006 -4.03234e-005
          4.3    -0.0011044    0.00176825      -8.99989 -2.03948e-005 -8.48636e-006 -4.01165e-005
         4.35     -0.001057    0.00177227       -8.9999 -2.47079e-005 -2.16918e-005 -3.97436e-005
          4.4     -0.001004    0.00177498      -8.99991 -2.90406e-005  -3.4871e-005 -3.92019e-005
         4.45  -0.000945512    0.00177645      -8.99993 -3.33768e-005 -4.79737e-005 -3.84894e-005
          4.5  -0.000881678    0.00177672      -8.99994 -3.77001e-005 -6.09495e-005 -3.76049e-005
         4.55  -0.000812671    0.00177586      -8.99995 -4.19937e-005 -7.37474e-005 -3.65477e-005
          4.6  -0.000738689    0.00177393      -8.99996 -4.62407e-005 -8.63165e-005  -3.5318e-005
         4.65  -0.000659958    0.00177101      -8.99998  -5.0424e-005 -9.86059e-005 -3.39164e-005
          4.7  -0.000576728    0.00176717      -8.99999 -5.45262e-005  -0.000110565 -3.23447e-005
         4.75  -0.000489277    0.00176249            -9 -5.85301e-005  -0.000122144 -3.06052e-005
          4.8  -0.000397904    0.00175706      -9.00002 -6.24184e-005  -0.000133294  -2.8701e-005
         4.85  -0.000302933    0.00175096      -9.00003  -6.6174e-005  -0.000143966 -2.66359e-005
          4.9  -0.000204711    0.00174428      -9.00004   -6.978e-005  -0.000154114 -2.44147e-005
         4.95  -0.000103604    0.00173711      -9.00006 -7.32196e-005  -0.000163692 -2.20428e-005
            5 -2.11324e-017    0.00172955      -9.00007 -7.64765e-005  -0.000172656 -1.95265e-005
         5.05   0.000105697    0.00172168      -9.00008 -7.95348e-005  -0.000180964 -1.68729e-005
          5.1   0.000213066     0.0017136       -9.0001  -8.2379e-005  -0.000188576 -1.40896e-005
         5.15   0.000321671    0.00170541      -9.00011 -8.49943e-005  -0.000195453 -1.11853e-005
          5.2   0.000431062    0.00169721      -9.00013 -8.73663e-005  -0.000201561 -8.16931e-006
         5.25    0.00054078    0.00168909      -9.00014 -8.94815e-005  -0.000206866 -5.05158e-006
          5.3   0.000650353    0.00168115      -9.00015 -9.13271e-005  -0.000211337 -1.84288e-006
         5.35   0.000759306    0.00167347      -9.00016 -9.28911e-005  -0.000214948  1.44539e-006
          5.4   0.000867157    0.00166616      -9.00018 -9.41625e-005  -0.000217673  4.80114e-006
         5.45   0.000973419     0.0016593      -9.00019 -9.51312e-005  -0.000219492  8.21168e-006
          5.5    0.00107761    0.00165299       -9.0002 -9.57882e-005  -0.000220386  1.16637e-005
         5.55    0.00117923     0.0016473      -9.00021 -9.61254e-005   -0.00022034  1.51434e-005
          5.6    0.00127782    0.00164232      -9.00022 -9.61359e-005  -0.000219344  1.86364e-005
         5.65    0.00137289    0.00163812      -9.00023  -9.5814e-005  -0.000217389  2.21279e-005
          5.7    0.00146398    0.00163479      -9.00024 -9.51554e-005  -0.000214472  2.56027e-005
         5.75    0.00155062    0.00163239      -9.00025 -9.41566e-005  -0.000210592  2.90451e-005
          5.8    0.00163237    0.00163099      -9.00026 -9.28158e-005  -0.000205754  3.24393e-005
         5.85     0.0017088    0.00163064      -9.00026 -9.11324e-005  -0.000199963  3.57692e-005
          5.9    0.00177949    0.00163141      -9.00027  -8.9107e-005  -0.000193232  3.90185e-005
         5.95    0.00184406    0.00163334      -9.00028 -8.67417e-005  -0.000185575  4.21709e-005
            6    0.00190211    0.00163647      -9.00028   -8.404e-005  -0.000177011    4.521e-005
         6.05    0.00195331    0.00164084      -9.00028 -8.10067e-005  -0.000167563  4.81195e-005
          6.1    0.00199732    0.00164649      -9.00029 -7.76478e-005  -0.000157258  5.08835e-005
         6.15    0.00203384    0.00165343      -9.00029 -7.39711e-005  -0.000146124   5.3486e-005
          6.2    0.00206259    0.00166168      -9.00029 -6.99854e-005  -0.000134196  5.59116e-005
         6.25    0.00208333    0.00167126      -9.00029 -6.57009e-005   -0.00012151  5.81452e-005
          6.3    0.00209586    0.00168217      -9.00029 -6.11293e-005  -0.000108108  6.01724e-005
         6.35    0.00209998     0.0016944      -9.00029 -5.62833e-005 -9.40322e-005  6.19793e-005
          6.4    0.00209555    0.00170794      -9.00029 -5.11771e-005 -7.93299e-005  6.35528e-005
         6.45    0.00208245    0.00172279      -9.00029 -4.58261e-005 -6.40505e-005  6.48808e-005
          6.5    0.00206062     0.0017389      -9.00028 -4.02467e-005 -4.82464e-005  6.59518e-005
         6.55    0.00203001    0.00175626      -9.00028 -3.44564e-005 -3.19726e-005  6.67555e-005
          6.6    0.00199062    0.00177482      -9.00027  -2.8474e-005 -1.52864e-005  6.72828e-005
         6.65    0.00194248    0.00179454      -9.00026  -2.2319e-005   1.7528e-006  6.75256e-005
          6.7    0.00188567    0.00181537      -9.00026  -1.6012e-005  1.90836e-005  6.74772e-005
         6.75    0.00182029    0.00183726      -9.00025  -9.5744e-006  3.66429e-005  6.71322e-005
          6.8     0.0017465    0.00186013      -9.00024 -3.02829e-006   5.4366e-005  6.64867e-005
         6.85    0.00166448    0.00188392      -9.00023  3.60349e-006  7.21873e-005  6.55382e-005
          6.9    0.00157446    0.00190857      -9.00022  1.02975e-005  9.00398e-005  6.42857e-005
         6.95     0.0014767    0.00193398      -9.00021  1.70299e-005   0.000107856  6.27299e-005
            7     0.0013715    0.00196008      -9.00019  2.37763e-005   0.000125568  6.08732e-005
         7.05    0.00125919    0.00198678      -9.00018   3.0512e-005   0.000143107  5.87193e-005
          7.1    0.00114015    0.00201399      -9.00017  3.72123e-005   0.000160406  5.62741e-005
         7.15    0.00101477    0.00204161      -9.00016  4.38521e-005   0.000177396  5.35448e-005
          7.2   0.000883499    0.00206955      -9.00014  5.04065e-005   0.000194011  5.05404e-005
         7.25   0.000746791    0.00209772      -9.00013  5.68506e-005   0.000210184  4.72718e-005
          7.3   0.000605145    0.00212599      -9.00011  6.31597e-005   0.000225849  4.37514e-005
         7.35   0.000459084    0.00215429      -9.00009  6.93093e-005   0.000240944  3.99933e-005
          7.4   0.000309155    0.00218249      -9.00008  7.52755e-005   0.000255405  3.60131e-005
         7.45    0.00015593    0.00221051      -9.00006  8.10348e-005   0.000269174  3.18282e-005
          7.5  5.86501e-017    0.00223822      -9.00005  8.65643e-005   0.000282191  2.74573e-005
         7.55  -0.000158023    0.00226555      -9.00003  9.18417e-005   0.000294402  2.29207e-005
          7.6  -0.000317511    0.00229237      -9.00001  9.68457e-005   0.000305753  1.82399e-005
         7.65  -0.000477822    0.00231859            -9   0.000101556   0.000316196  1.34379e-005
          7.7  -0.000638304    0.00234412      -8.99998   0.000105952   0.000325682  8.53854e-006
         7.75  -0.000798294    0.00236885      -8.99996   0.000110017   0.000334169  3.56698e-006
          7.8  -0.000957124    0.00239271      -8.99995   0.000113732   0.000341617 -1.45078e-006
         7.85   -0.00111412    0.00241559      -8.99993   0.000117082   0.000347989 -6.48791e-006
          7.9   -0.00126862    0.00243742      -8.99992   0.000120052   0.000353254 -1.15169e-005
         7.95   -0.00141994    0.00245812       -8.9999   0.000122628   0.000357382 -1.65096e-005
            8   -0.00156743    0.00247762      -8.99989   0.000124798   0.000360351 -2.14376e-005
         8.05   -0.00171042    0.00249584      -8.99987   0.000126553   0.000362141 -2.62721e-005
          8.1   -0.00184828    0.00251273      -8.99986   0.000127882   0.000362735 -3.09842e-005
         8.15   -0.00198036    0.00252823      -8.99984   0.000128779   0.000362124  -3.5545e-005
          8.2   -0.00210607    0.00254228      -8.99983   0.000129238   0.000360302 -3.99259e-005
         8.25    -0.0022248    0.00255485      -8.99982   0.000129255   0.000357266 -4.40984e-005
          8.3   -0.00233597     0.0025659      -8.99981   0.000128827   0.000353021 -4.80348e-005
         8.35   -0.00243905    0.00257541       -8.9998   0.000127954   0.000347574 -5.17076e-005
          8.4   -0.00253352    0.00258334      -8.99979   0.000126637   0.000340938 -5.50905e-005
         8.45   -0.00261887    0.00258968      -8.99978   0.000124878    0.00033313 -5.81579e-005
          8.5   -0.00269466    0.00259444      -8.99977   0.000122682   0.000324173 -6.08854e-005
         8.55   -0.00276046    0.00259761      -8.99976   0.000120056   0.000314093 -6.32496e-005
          8.6   -0.00281589     0.0025992      -8.99976   0.000117006   0.000302922 -6.52289e-005
         8.65    -0.0028606    0.00259923      -8.99975   0.000113544   0.000290694 -6.68027e-005
          8.7   -0.00289428    0.00259771      -8.99975   0.000109679   0.000277451 -6.79524e-005
         8.75   -0.00291667    0.00259469      -8.99974   0.000105425   0.000263236 -6.86611e-005
          8.8   -0.00292755    0.00259021      -8.99974   0.000100797   0.000248099 -6.89137e-005
         8.85   -0.00292674     0.0025843      -8.99974  9.58093e-005    0.00023209 -6.86971e-005
          8.9   -0.00291412    0.00257703      -8.99974  9.04802e-005   0.000215266 -6.80006e-005
         8.95   -0.00288961    0.00256846      -8.99974  8.48283e-005   0.000197686 -6.68154e-005
            9   -0.00285317    0.00255864      -8.99974  7.88736e-005   0.000179414 -6.51351e-005
         9.05   -0.00280483    0.00254766      -8.99974  7.26374e-005   0.000160514  -6.2956e-005
          9.1   -0.00274464     0.0025356      -8.99975  6.61422e-005   0.000141055 -6.02764e-005
         9.15   -0.00267274    0.00252254      -8.99975  5.94114e-005    0.00012111 -5.70975e-005
          9.2   -0.00258927    0.00250857      -8.99976  5.24697e-005    0.00010075  -5.3423e-005
         9.25   -0.00249447    0.00249379      -8.99977  4.53422e-005  8.00514e-005 -4.92594e-005
          9.3   -0.00238859     0.0024783      -8.99977  3.80553e-005  5.90917e-005 -4.46155e-005
         9.35   -0.00227195     0.0024622      -8.99978  3.06357e-005  3.79494e-005 -3.95031e-005
          9.4   -0.00214491     0.0024456      -8.99979  2.31108e-005  1.67043e-005 -3.39367e-005
         9.45   -0.00200789    0.00242861       -8.9998  1.55085e-005 -4.56309e-006 -2.79333e-005
          9.5   -0.00186132    0.00241134      -8.99981  7.85697e-006 -2.57715e-005 -2.15125e-005
         9.55   -0.00170572     0.0023939      -8.99983  1.84607e-007 -4.68396e-005 -1.46967e-005
          9.6   -0.00154161    0.00237642      -8.99984 -7.48004e-006 -6.76861e-005 -7.51068e-006
         9.65   -0.00136959    0.00235901      -8.99985 -1.51084e-005 -8.82302e-005  1.82561e-008
          9.7   -0.00119027    0.00234178      -8.99987 -2.26722e-005  -0.000108392  7.86036e-006
         9.75   -0.00100431    0.00232485      -8.99988 -3.01431e-005  -0.000128092  1.59837e-005
          9.8  -0.000812387    0.00230834       -8.9999 -3.74933e-005  -0.000147253   2.4354e-005
         9.85  -0.000615235    0.00229235      -8.99991 -4.46955e-005  -0.000165799  3.29354e-005
          9.9    -0.0004136    0.00227701      -8.99993  -5.1723e-005  -0.000183655    4.169e-005
         9.95  -0.000208255    0.00226242      -8.99994 -5.85495e-005  -0.000200751  5.05781e-005
           10  2.79731e-017    0.00224868      -8.99996 -6.51499e-005  -0.000217017  5.95587e-005
        10.05   0.000210348     0.0022359      -8.99998 -7.14996e-005  -0.000232387  6.85896e-005
