DNVGL 
F3OF_IO 
DT1 
HEAVE 
t(s) HEAVE(m) 
0.000000000000000000E+00 -9.000000000000000000E+00
1.000000000000000100E-01 -9.000055660454222600E+00
2.000000000000000100E-01 -9.000222362636691300E+00
3.000000000000000400E-01 -9.000499270077170900E+00
4.000000000000000200E-01 -9.000884993230101800E+00
5.000000000000000000E-01 -9.001377596645625100E+00
6.000000000000000900E-01 -9.001974609040530600E+00
7.000000000000000700E-01 -9.002673036377586900E+00
8.000000000000000400E-01 -9.003469378001455000E+00
9.000000000000000200E-01 -9.004359645794920700E+00
1.000000000000000000E+00 -9.005339386384434900E+00
1.100000000000000100E+00 -9.006403706268656600E+00
1.200000000000000200E+00 -9.007547299541443000E+00
1.300000000000000000E+00 -9.008764477008753600E+00
1.400000000000000100E+00 -9.010049199437162300E+00
1.500000000000000000E+00 -9.011395110259968500E+00
1.600000000000000100E+00 -9.012795570495313800E+00
1.700000000000000200E+00 -9.014243694394849600E+00
1.800000000000000000E+00 -9.015732385633555200E+00
1.900000000000000100E+00 -9.017254373719993100E+00
2.000000000000000000E+00 -9.018802250364274200E+00
2.100000000000000100E+00 -9.020368505575334000E+00
2.200000000000000200E+00 -9.021945563300619100E+00
2.300000000000000300E+00 -9.023525816466190000E+00
2.400000000000000400E+00 -9.025101661304802300E+00
2.500000000000000000E+00 -9.026665530890454600E+00
2.600000000000000100E+00 -9.028209927839043300E+00
2.700000000000000200E+00 -9.029727456175237400E+00
2.800000000000000300E+00 -9.031210852413323700E+00
2.900000000000000400E+00 -9.032653015937171400E+00
3.000000000000000000E+00 -9.034047038786525300E+00
3.100000000000000100E+00 -9.035386234949214700E+00
3.200000000000000200E+00 -9.036664169205209900E+00
3.300000000000000300E+00 -9.037874685578572100E+00
3.400000000000000400E+00 -9.039011935474263700E+00
3.500000000000000000E+00 -9.040070405063374900E+00
3.600000000000000100E+00 -9.041044942079906800E+00
3.700000000000000200E+00 -9.041930781803898800E+00
3.800000000000000300E+00 -9.042723572077306900E+00
3.900000000000000400E+00 -9.043419397184152300E+00
4.000000000000000000E+00 -9.044014800413151500E+00
4.100000000000000500E+00 -9.044506805090009000E+00
4.200000000000000200E+00 -9.044892933838923500E+00
4.299999999999999800E+00 -9.045171225803869700E+00
4.400000000000000400E+00 -9.045340251549532700E+00
4.500000000000000000E+00 -9.045399125361427700E+00
4.600000000000000500E+00 -9.045347514685204300E+00
4.700000000000000200E+00 -9.045185646481513700E+00
4.800000000000000700E+00 -9.044914310306126000E+00
4.900000000000000400E+00 -9.044534857971370900E+00
5.000000000000000000E+00 -9.044049199683286100E+00
5.100000000000000500E+00 -9.043459796585580100E+00
5.200000000000000200E+00 -9.042769649675847200E+00
5.300000000000000700E+00 -9.041982285011499700E+00
5.400000000000000400E+00 -9.041101735628558300E+00
5.500000000000000000E+00 -9.040132519468329500E+00
5.600000000000000500E+00 -9.039079614755564800E+00
5.700000000000000200E+00 -9.037948431312315700E+00
5.800000000000000700E+00 -9.036744779347259300E+00
5.900000000000000400E+00 -9.035474835664331300E+00
6.000000000000000000E+00 -9.034145107765880300E+00
6.100000000000000500E+00 -9.032762395748022800E+00
6.200000000000000200E+00 -9.031333752695786600E+00
6.300000000000000700E+00 -9.029866443588275600E+00
6.400000000000000400E+00 -9.028367903424737100E+00
6.500000000000000000E+00 -9.026845694872349700E+00
6.600000000000000500E+00 -9.025307466084086600E+00
6.700000000000000200E+00 -9.023760908302392600E+00
6.800000000000000700E+00 -9.022213714618601400E+00
6.900000000000000400E+00 -9.020673539715744500E+00
7.000000000000000000E+00 -9.019147960571103800E+00
7.100000000000000500E+00 -9.017644438497427500E+00
7.200000000000000200E+00 -9.016170282698340100E+00
7.300000000000000700E+00 -9.014732615508933100E+00
7.400000000000000400E+00 -9.013338339489450800E+00
7.500000000000000000E+00 -9.011994106454949400E+00
7.600000000000000500E+00 -9.010706288496749000E+00
7.700000000000000200E+00 -9.009480951011937600E+00
7.800000000000000700E+00 -9.008323827725462300E+00
7.900000000000000400E+00 -9.007240297668204200E+00
8.000000000000000000E+00 -9.006235363895712000E+00
8.099999999999999600E+00 -9.005313634074696000E+00
8.200000000000001100E+00 -9.004479303085076900E+00
8.300000000000000700E+00 -9.003736137475129900E+00
8.400000000000000400E+00 -9.003087461683776400E+00
8.500000000000000000E+00 -9.002536145558792700E+00
8.599999999999999600E+00 -9.002084593468453000E+00
8.700000000000001100E+00 -9.001734735040827200E+00
8.800000000000000700E+00 -9.001488017637711900E+00
8.900000000000000400E+00 -9.001345400701666200E+00
9.000000000000000000E+00 -9.001307352073922600E+00
9.099999999999999600E+00 -9.001373846333876800E+00
9.200000000000001100E+00 -9.001544365201652900E+00
9.300000000000000700E+00 -9.001817900006130900E+00
9.400000000000000400E+00 -9.002192956234239300E+00
9.500000000000000000E+00 -9.002667560231998300E+00
9.600000000000001400E+00 -9.003239268129959800E+00
9.700000000000001100E+00 -9.003905177061597000E+00
9.800000000000000700E+00 -9.004661938716140000E+00
9.900000000000000400E+00 -9.005505775194024000E+00
1.000000000000000000E+01 -9.006432497041714700E+00
1.010000000000000100E+01 -9.007437523351541100E+00
1.020000000000000100E+01 -9.008515903774537000E+00
1.030000000000000100E+01 -9.009662342338742700E+00
1.040000000000000000E+01 -9.010871223002709500E+00
1.050000000000000000E+01 -9.012136636871559900E+00
1.060000000000000100E+01 -9.013452411002276700E+00
1.070000000000000100E+01 -9.014812138652246200E+00
1.080000000000000100E+01 -9.016209210810643500E+00
1.090000000000000000E+01 -9.017636848801203100E+00
1.100000000000000000E+01 -9.019088137736616800E+00
1.110000000000000100E+01 -9.020556060645958500E+00
1.120000000000000100E+01 -9.022033533132003000E+00
1.130000000000000100E+01 -9.023513438418262900E+00
1.140000000000000000E+01 -9.024988662643522700E+00
1.150000000000000000E+01 -9.026452130254369900E+00
1.160000000000000100E+01 -9.027896839256868600E+00
1.170000000000000100E+01 -9.029315896067828400E+00
1.180000000000000100E+01 -9.030702549693955900E+00
1.190000000000000000E+01 -9.032050224937847800E+00
1.200000000000000000E+01 -9.033352554378552700E+00
1.210000000000000100E+01 -9.034603408953216800E+00
1.220000000000000100E+01 -9.035796926813532100E+00
1.230000000000000100E+01 -9.036927540336932900E+00
1.240000000000000000E+01 -9.037990001129742300E+00
1.250000000000000000E+01 -9.038979402899713000E+00
1.260000000000000100E+01 -9.039891202087119400E+00
1.270000000000000100E+01 -9.040721236192666800E+00
1.280000000000000100E+01 -9.041465739799036800E+00
1.290000000000000000E+01 -9.042121358343365500E+00
1.300000000000000000E+01 -9.042685159729217000E+00
1.310000000000000100E+01 -9.043154643923230700E+00
1.320000000000000100E+01 -9.043527750721750600E+00
1.330000000000000100E+01 -9.043802865809425400E+00
1.340000000000000000E+01 -9.043978825263366200E+00
1.350000000000000000E+01 -9.044054918579604400E+00
1.360000000000000100E+01 -9.044030890264707500E+00
1.370000000000000100E+01 -9.043906940005172100E+00
1.380000000000000100E+01 -9.043683721384240900E+00
1.390000000000000000E+01 -9.043362339130339900E+00
1.400000000000000000E+01 -9.042944344850411700E+00
1.410000000000000100E+01 -9.042431731204146700E+00
1.420000000000000100E+01 -9.041826924462498000E+00
1.430000000000000100E+01 -9.041132775383971400E+00
1.440000000000000000E+01 -9.040352548346845700E+00
1.450000000000000000E+01 -9.039489908644554800E+00
1.460000000000000100E+01 -9.038548907924223400E+00
1.470000000000000100E+01 -9.037533967748913700E+00
1.480000000000000100E+01 -9.036449861314167700E+00
1.490000000000000000E+01 -9.035301693364203900E+00
1.500000000000000000E+01 -9.034094878408609500E+00
1.510000000000000100E+01 -9.032835117312060900E+00
1.520000000000000100E+01 -9.031528372306866000E+00
1.530000000000000100E+01 -9.030180840539173900E+00
1.540000000000000000E+01 -9.028798926179547400E+00
1.550000000000000000E+01 -9.027389211162130800E+00
1.560000000000000100E+01 -9.025958424658711000E+00
1.570000000000000100E+01 -9.024513411391581000E+00
1.580000000000000100E+01 -9.023061099026563200E+00
1.590000000000000000E+01 -9.021608463938605400E+00
1.600000000000000000E+01 -9.020162496749435400E+00
1.610000000000000100E+01 -9.018730168941715400E+00
1.619999999999999900E+01 -9.017318397536996600E+00
1.630000000000000100E+01 -9.015934010041519300E+00
1.640000000000000200E+01 -9.014583709571184000E+00
1.650000000000000000E+01 -9.013274040467194900E+00
1.660000000000000100E+01 -9.012011354673291000E+00
1.669999999999999900E+01 -9.010801779169241900E+00
1.680000000000000100E+01 -9.009651184675135500E+00
1.690000000000000200E+01 -9.008565155828364400E+00
1.700000000000000000E+01 -9.007548962987471000E+00
1.710000000000000100E+01 -9.006607535783587100E+00
1.719999999999999900E+01 -9.005745438529629600E+00
1.730000000000000100E+01 -9.004966847590822000E+00
1.740000000000000200E+01 -9.004275530851941800E+00
1.750000000000000000E+01 -9.003674829380202000E+00
1.760000000000000100E+01 -9.003167641379036500E+00
1.769999999999999900E+01 -9.002756408536015400E+00
1.780000000000000100E+01 -9.002443103949758600E+00
1.790000000000000200E+01 -9.002229225358405500E+00
1.800000000000000000E+01 -9.002115787880598000E+00
1.810000000000000100E+01 -9.002103319226876000E+00
1.819999999999999900E+01 -9.002191857841353300E+00
1.830000000000000100E+01 -9.002380953433544200E+00
1.840000000000000200E+01 -9.002669669773467800E+00
1.850000000000000000E+01 -9.003056589593256800E+00
1.860000000000000100E+01 -9.003539821496360700E+00
1.869999999999999900E+01 -9.004117008745652100E+00
1.880000000000000100E+01 -9.004785339881550500E+00
1.890000000000000200E+01 -9.005541561204609000E+00
1.900000000000000000E+01 -9.006381991190437500E+00
1.910000000000000100E+01 -9.007302536889369500E+00
1.920000000000000300E+01 -9.008298712324517500E+00
1.930000000000000100E+01 -9.009365658843421400E+00
1.940000000000000200E+01 -9.010498167342916500E+00
1.950000000000000000E+01 -9.011690702265013900E+00
1.960000000000000100E+01 -9.012937427290012200E+00
1.970000000000000300E+01 -9.014232232701033400E+00
1.980000000000000100E+01 -9.015568764399290600E+00
1.990000000000000200E+01 -9.016940454514838200E+00
2.000000000000000000E+01 -9.018340553525718000E+00
2.010000000000000100E+01 -9.019762163736800200E+00
2.020000000000000300E+01 -9.021198273900722600E+00
2.030000000000000100E+01 -9.022641794756395900E+00
2.040000000000000200E+01 -9.024085595270776100E+00
2.050000000000000000E+01 -9.025522539402459200E+00
2.060000000000000100E+01 -9.026945523214863000E+00
2.070000000000000300E+01 -9.028347512159825800E+00
2.080000000000000100E+01 -9.029721578310272900E+00
2.090000000000000200E+01 -9.031060937236929900E+00
2.100000000000000000E+01 -9.032358984209508900E+00
2.110000000000000100E+01 -9.033609329366640800E+00
2.120000000000000300E+01 -9.034805831513153900E+00
2.130000000000000100E+01 -9.035942630274917100E+00
2.140000000000000200E+01 -9.037014176399566200E+00
2.150000000000000000E+01 -9.038015260063843900E+00
2.160000000000000100E+01 -9.038941037095582900E+00
2.170000000000000300E+01 -9.039787053026998400E+00
2.180000000000000100E+01 -9.040549264903575000E+00
2.190000000000000200E+01 -9.041224060755894200E+00
2.200000000000000000E+01 -9.041808276630945300E+00
2.210000000000000100E+01 -9.042299211085378400E+00
2.220000000000000300E+01 -9.042694637052022700E+00
2.230000000000000100E+01 -9.042992811000885900E+00
2.240000000000000200E+01 -9.043192479360982400E+00
2.250000000000000000E+01 -9.043292882211972000E+00
2.260000000000000100E+01 -9.043293754255842000E+00
2.270000000000000300E+01 -9.043195323137183500E+00
2.280000000000000100E+01 -9.042998305169817300E+00
2.290000000000000200E+01 -9.042703898557078900E+00
2.300000000000000000E+01 -9.042313774193985400E+00
2.310000000000000100E+01 -9.041830064161558800E+00
2.320000000000000300E+01 -9.041255348032223100E+00
2.330000000000000100E+01 -9.040592637144072800E+00
2.340000000000000200E+01 -9.039845357019430600E+00
2.350000000000000000E+01 -9.039017328121758500E+00
2.360000000000000100E+01 -9.038112745149533100E+00
2.370000000000000300E+01 -9.037136155040570900E+00
2.380000000000000100E+01 -9.036092433779344900E+00
2.390000000000000200E+01 -9.034986762066751000E+00
2.400000000000000000E+01 -9.033824599910076400E+00
2.410000000000000100E+01 -9.032611660227871700E+00
2.420000000000000300E+01 -9.031353881571476400E+00
2.430000000000000100E+01 -9.030057400055739000E+00
2.440000000000000200E+01 -9.028728520586696500E+00
2.450000000000000000E+01 -9.027373687433964700E+00
2.460000000000000100E+01 -9.025999454213661000E+00
2.470000000000000300E+01 -9.024612453329496000E+00
2.480000000000000100E+01 -9.023219364961391900E+00
2.490000000000000200E+01 -9.021826885705422700E+00
2.500000000000000000E+01 -9.020441696961938800E+00
2.510000000000000100E+01 -9.019070433200795400E+00
2.520000000000000300E+01 -9.017719650261142300E+00
2.530000000000000100E+01 -9.016395793836181800E+00
2.540000000000000200E+01 -9.015105168278182600E+00
2.550000000000000000E+01 -9.013853905919745600E+00
2.560000000000000100E+01 -9.012647937101405700E+00
2.570000000000000300E+01 -9.011492961096678300E+00
2.580000000000000100E+01 -9.010394418173859800E+00
2.590000000000000200E+01 -9.009357463011156100E+00
2.600000000000000000E+01 -9.008386939667161600E+00
2.610000000000000100E+01 -9.007487358314506300E+00
2.620000000000000300E+01 -9.006662873892992100E+00
2.630000000000000100E+01 -9.005917266765209200E+00
2.640000000000000200E+01 -9.005253925462056900E+00
2.650000000000000000E+01 -9.004675831588770100E+00
2.660000000000000100E+01 -9.004185546896224000E+00
2.670000000000000300E+01 -9.003785202565950400E+00
2.680000000000000100E+01 -9.003476490775028700E+00
2.690000000000000200E+01 -9.003260658574618000E+00
2.700000000000000000E+01 -9.003138504126923200E+00
2.710000000000000100E+01 -9.003110375354936000E+00
2.720000000000000300E+01 -9.003176170998244700E+00
2.730000000000000100E+01 -9.003335344054789900E+00
2.740000000000000200E+01 -9.003586907574685900E+00
2.750000000000000000E+01 -9.003929442725052500E+00
2.760000000000000100E+01 -9.004361109030924100E+00
2.770000000000000300E+01 -9.004879656678667700E+00
2.780000000000000100E+01 -9.005482440724563300E+00
2.790000000000000200E+01 -9.006166437035290100E+00
2.800000000000000000E+01 -9.006928259778533200E+00
2.810000000000000100E+01 -9.007764180262938700E+00
2.820000000000000300E+01 -9.008670146911072200E+00
2.830000000000000100E+01 -9.009641806192235000E+00
2.840000000000000200E+01 -9.010674524351088600E+00
2.850000000000000000E+01 -9.011763409776449400E+00
2.860000000000000100E+01 -9.012903335897817700E+00
2.870000000000000300E+01 -9.014088964518805400E+00
2.880000000000000100E+01 -9.015314769509359400E+00
2.890000000000000200E+01 -9.016575060782656700E+00
2.900000000000000000E+01 -9.017864008499486800E+00
2.910000000000000100E+01 -9.019175667446234000E+00
2.920000000000000300E+01 -9.020504001545077700E+00
2.930000000000000100E+01 -9.021842908466169300E+00
2.940000000000000200E+01 -9.023186244316775600E+00
2.950000000000000000E+01 -9.024527848402044600E+00
2.960000000000000100E+01 -9.025861568053414900E+00
2.970000000000000300E+01 -9.027181283540585400E+00
2.980000000000000100E+01 -9.028480933398441300E+00
2.990000000000000200E+01 -9.029754536425230100E+00
3.000000000000000000E+01 -9.030996214737570000E+00
3.010000000000000100E+01 -9.032200230176727000E+00
3.020000000000000300E+01 -9.033361004345238100E+00
3.030000000000000100E+01 -9.034473141807325200E+00
3.040000000000000200E+01 -9.035531454071019700E+00
3.050000000000000000E+01 -9.036530983339275700E+00
3.060000000000000100E+01 -9.037467025886940100E+00
3.070000000000000300E+01 -9.038335154862807000E+00
3.080000000000000100E+01 -9.039131242372718600E+00
3.090000000000000200E+01 -9.039851480694551400E+00
3.100000000000000000E+01 -9.040492402477298100E+00
3.110000000000000100E+01 -9.041050899199490200E+00
3.120000000000000300E+01 -9.041524229483798100E+00
3.130000000000000100E+01 -9.041910043926236500E+00
3.140000000000000200E+01 -9.042206412479686200E+00
3.150000000000000000E+01 -9.042411829719185300E+00
3.160000000000000100E+01 -9.042525222049221200E+00
3.170000000000000300E+01 -9.042545954154775200E+00
3.180000000000000100E+01 -9.042473833417943800E+00
3.190000000000000200E+01 -9.042309112059115300E+00
3.200000000000000000E+01 -9.042052486919033100E+00
3.210000000000000100E+01 -9.041705096886858000E+00
3.220000000000000300E+01 -9.041268518007086600E+00
3.230000000000000400E+01 -9.040744756294088800E+00
3.239999999999999900E+01 -9.040136238323157200E+00
3.250000000000000000E+01 -9.039445799671511800E+00
3.260000000000000100E+01 -9.038676671281109500E+00
3.270000000000000300E+01 -9.037832463844097200E+00
3.280000000000000400E+01 -9.036917150285717100E+00
3.289999999999999900E+01 -9.035935046439135500E+00
3.300000000000000000E+01 -9.034890790007466400E+00
3.310000000000000100E+01 -9.033789317923719900E+00
3.320000000000000300E+01 -9.032635842247941600E+00
3.330000000000000400E+01 -9.031435824767982000E+00
3.339999999999999900E+01 -9.030194950490908900E+00
3.350000000000000000E+01 -9.028919100231860300E+00
3.360000000000000100E+01 -9.027614322487011100E+00
3.370000000000000300E+01 -9.026286804766869000E+00
3.380000000000000400E+01 -9.024942844550082600E+00
3.389999999999999900E+01 -9.023588819981910100E+00
3.400000000000000000E+01 -9.022231160439218900E+00
3.410000000000000100E+01 -9.020876317080023900E+00
3.420000000000000300E+01 -9.019530733494320900E+00
3.430000000000000400E+01 -9.018200816577405000E+00
3.439999999999999900E+01 -9.016892907748001600E+00
3.450000000000000000E+01 -9.015613254601589700E+00
3.460000000000000100E+01 -9.014367983078727800E+00
3.470000000000000300E+01 -9.013163070184191400E+00
3.480000000000000400E+01 -9.012004317278979200E+00
3.489999999999999900E+01 -9.010897323972130800E+00
3.500000000000000000E+01 -9.009847462617813100E+00
3.510000000000000100E+01 -9.008859853446210800E+00
3.520000000000000300E+01 -9.007939340407347100E+00
3.530000000000000400E+01 -9.007090467779789800E+00
3.539999999999999900E+01 -9.006317457618479200E+00
3.550000000000000000E+01 -9.005624188152978600E+00
3.560000000000000100E+01 -9.005014173796212200E+00
3.570000000000000300E+01 -9.004490546672059300E+00
3.580000000000000400E+01 -9.004056036682982300E+00
3.589999999999999900E+01 -9.003712953349122500E+00
3.600000000000000000E+01 -9.003463170189888800E+00
3.610000000000000100E+01 -9.003308112038325800E+00
3.620000000000000300E+01 -9.003248743578865300E+00
3.630000000000000400E+01 -9.003285559536948300E+00
3.639999999999999900E+01 -9.003418577718321100E+00
3.650000000000000000E+01 -9.003647334780225700E+00
3.660000000000000100E+01 -9.003970884871478100E+00
3.670000000000000300E+01 -9.004387801199072800E+00
3.680000000000000400E+01 -9.004896180553032500E+00
3.689999999999999900E+01 -9.005493650810763000E+00
3.700000000000000000E+01 -9.006177381377369800E+00
3.710000000000000100E+01 -9.006944096499182700E+00
3.720000000000000300E+01 -9.007790091367724000E+00
3.730000000000000400E+01 -9.008711250886676700E+00
3.739999999999999900E+01 -9.009703070962473200E+00
3.750000000000000000E+01 -9.010760682155819300E+00
3.760000000000000100E+01 -9.011878875525553700E+00
3.770000000000000300E+01 -9.013052130481810300E+00
3.780000000000000400E+01 -9.014274644442934900E+00
3.789999999999999900E+01 -9.015540364084699800E+00
3.800000000000000000E+01 -9.016843017957967300E+00
3.810000000000000100E+01 -9.018176150215936100E+00
3.820000000000000300E+01 -9.019533155201656900E+00
3.830000000000000400E+01 -9.020907312638542000E+00
3.840000000000000600E+01 -9.022291823163641300E+00
3.850000000000000000E+01 -9.023679843974719000E+00
3.860000000000000100E+01 -9.025064524359663700E+00
3.870000000000000300E+01 -9.026439040914965500E+00
3.880000000000000400E+01 -9.027796632259196500E+00
3.890000000000000600E+01 -9.029130633049703600E+00
3.900000000000000000E+01 -9.030434507141535500E+00
