WSM
F3OF
DT2
HEAVE
t(s)	HEAVE(m)
0.00000	-9.00000
0.10000	-9.00007
0.20000	-9.00027
0.30000	-9.00053
0.40000	-9.00076
0.50000	-9.00085
0.60000	-9.00077
0.70000	-9.00054
0.80000	-9.00021
0.90000	-8.99981
1.00000	-8.99935
1.10000	-8.99880
1.20000	-8.99813
1.30000	-8.99730
1.40000	-8.99630
1.50000	-8.99514
1.60000	-8.99381
1.70000	-8.99234
1.80000	-8.99075
1.90000	-8.98903
2.00000	-8.98721
2.10000	-8.98530
2.20000	-8.98333
2.30000	-8.98131
2.40000	-8.97928
2.50000	-8.97726
2.60000	-8.97528
2.70000	-8.97336
2.80000	-8.97152
2.90000	-8.96979
3.00000	-8.96817
3.10000	-8.96670
3.20000	-8.96537
3.30000	-8.96420
3.40000	-8.96319
3.50000	-8.96235
3.60000	-8.96167
3.70000	-8.96116
3.80000	-8.96080
3.90000	-8.96059
4.00000	-8.96051
4.10000	-8.96056
4.20000	-8.96072
4.30000	-8.96098
4.40000	-8.96132
4.50000	-8.96173
4.60000	-8.96220
4.70000	-8.96271
4.80000	-8.96326
4.90000	-8.96384
5.00000	-8.96443
5.10000	-8.96505
5.20000	-8.96568
5.30000	-8.96633
5.40000	-8.96700
5.50000	-8.96771
5.60000	-8.96845
5.70000	-8.96924
5.80000	-8.97008
5.90000	-8.97100
6.00000	-8.97199
6.10000	-8.97307
6.20000	-8.97424
6.30000	-8.97552
6.40000	-8.97691
6.50000	-8.97840
6.60000	-8.98000
6.70000	-8.98171
6.80000	-8.98351
6.90000	-8.98541
7.00000	-8.98738
7.10000	-8.98940
7.20000	-8.99148
7.30000	-8.99357
7.40000	-8.99566
7.50000	-8.99773
7.60000	-8.99975
7.70000	-9.00170
7.80000	-9.00356
7.90000	-9.00530
8.00000	-9.00689
8.10000	-9.00832
8.20000	-9.00958
8.30000	-9.01064
8.40000	-9.01149
8.50000	-9.01214
8.60000	-9.01257
8.70000	-9.01278
8.80000	-9.01278
8.90000	-9.01257
9.00000	-9.01217
9.10000	-9.01159
9.20000	-9.01083
9.30000	-9.00992
9.40000	-9.00886
9.50000	-9.00769
9.60000	-9.00640
9.70000	-9.00503
9.80000	-9.00358
9.90000	-9.00207
10.00000	-9.00051
10.10000	-8.99892
10.20000	-8.99729
10.30000	-8.99565
10.40000	-8.99400
10.50000	-8.99234
10.60000	-8.99068
10.70000	-8.98901
10.80000	-8.98734
10.90000	-8.98568
11.00000	-8.98400
11.10000	-8.98233
11.20000	-8.98066
11.30000	-8.97898
11.40000	-8.97730
11.50000	-8.97562
11.60000	-8.97394
11.70000	-8.97228
11.80000	-8.97064
11.90000	-8.96902
12.00000	-8.96746
12.10000	-8.96595
12.20000	-8.96451
12.30000	-8.96317
12.40000	-8.96194
12.50000	-8.96083
12.60000	-8.95987
12.70000	-8.95907
12.80000	-8.95845
12.90000	-8.95802
13.00000	-8.95778
13.10000	-8.95776
13.20000	-8.95794
13.30000	-8.95834
13.40000	-8.95894
13.50000	-8.95976
13.60000	-8.96077
13.70000	-8.96196
13.80000	-8.96332
13.90000	-8.96484
14.00000	-8.96650
14.10000	-8.96827
14.20000	-8.97013
14.30000	-8.97207
14.40000	-8.97406
14.50000	-8.97607
14.60000	-8.97810
14.70000	-8.98011
14.80000	-8.98209
14.90000	-8.98403
15.00000	-8.98591
15.10000	-8.98772
15.20000	-8.98945
15.30000	-8.99111
15.40000	-8.99269
15.50000	-8.99418
15.60000	-8.99560
15.70000	-8.99695
15.80000	-8.99823
15.90000	-8.99945
16.00000	-9.00061
16.10000	-9.00172
16.20000	-9.00279
16.30000	-9.00381
16.40000	-9.00480
16.50000	-9.00575
16.60000	-9.00667
16.70000	-9.00754
16.80000	-9.00837
16.90000	-9.00914
17.00000	-9.00986
17.10000	-9.01051
17.20000	-9.01108
17.30000	-9.01155
17.40000	-9.01193
17.50000	-9.01218
17.60000	-9.01231
17.70000	-9.01230
17.80000	-9.01215
17.90000	-9.01183
18.00000	-9.01135
18.10000	-9.01070
18.20000	-9.00988
18.30000	-9.00889
18.40000	-9.00773
18.50000	-9.00641
18.60000	-9.00494
18.70000	-9.00333
18.80000	-9.00160
18.90000	-8.99977
19.00000	-8.99784
19.10000	-8.99585
19.20000	-8.99381
19.30000	-8.99175
19.40000	-8.98969
19.50000	-8.98765
19.60000	-8.98564
19.70000	-8.98369
19.80000	-8.98182
19.90000	-8.98003
20.00000	-8.97835
20.10000	-8.97679
20.20000	-8.97534
20.30000	-8.97403
20.40000	-8.97284
20.50000	-8.97179
20.60000	-8.97088
20.70000	-8.97009
20.80000	-8.96943
20.90000	-8.96888
21.00000	-8.96845
21.10000	-8.96813
21.20000	-8.96791
21.30000	-8.96778
21.40000	-8.96773
21.50000	-8.96776
21.60000	-8.96787
21.70000	-8.96804
21.80000	-8.96828
21.90000	-8.96859
22.00000	-8.96896
22.10000	-8.96941
22.20000	-8.96992
22.30000	-8.97050
22.40000	-8.97117
22.50000	-8.97191
22.60000	-8.97275
22.70000	-8.97367
22.80000	-8.97468
22.90000	-8.97578
23.00000	-8.97698
23.10000	-8.97826
23.20000	-8.97964
23.30000	-8.98109
23.40000	-8.98263
23.50000	-8.98422
23.60000	-8.98588
23.70000	-8.98757
23.80000	-8.98930
23.90000	-8.99104
24.00000	-8.99279
24.10000	-8.99451
24.20000	-8.99620
24.30000	-8.99785
24.40000	-8.99942
24.50000	-9.00092
24.60000	-9.00232
24.70000	-9.00362
24.80000	-9.00479
24.90000	-9.00585
25.00000	-9.00677
25.10000	-9.00755
25.20000	-9.00820
25.30000	-9.00872
25.40000	-9.00910
25.50000	-9.00936
25.60000	-9.00950
25.70000	-9.00953
25.80000	-9.00945
25.90000	-9.00929
26.00000	-9.00905
26.10000	-9.00875
26.20000	-9.00838
26.30000	-9.00797
26.40000	-9.00751
26.50000	-9.00702
26.60000	-9.00651
26.70000	-9.00597
26.80000	-9.00542
26.90000	-9.00484
27.00000	-9.00424
27.10000	-9.00362
27.20000	-9.00298
27.30000	-9.00230
27.40000	-9.00159
27.50000	-9.00085
27.60000	-9.00005
27.70000	-8.99921
27.80000	-8.99831
27.90000	-8.99735
28.00000	-8.99634
28.10000	-8.99525
28.20000	-8.99411
28.30000	-8.99291
28.40000	-8.99165
28.50000	-8.99034
28.60000	-8.98899
28.70000	-8.98761
28.80000	-8.98621
28.90000	-8.98480
29.00000	-8.98340
29.10000	-8.98202
29.20000	-8.98067
29.30000	-8.97938
29.40000	-8.97815
29.50000	-8.97699
29.60000	-8.97593
29.70000	-8.97497
29.80000	-8.97412
29.90000	-8.97339
30.00000	-8.97278
30.10000	-8.97230
30.20000	-8.97196
30.30000	-8.97174
30.40000	-8.97165
30.50000	-8.97169
30.60000	-8.97185
30.70000	-8.97212
30.80000	-8.97250
30.90000	-8.97297
31.00000	-8.97353
31.10000	-8.97417
31.20000	-8.97489
31.30000	-8.97566
31.40000	-8.97648
31.50000	-8.97735
31.60000	-8.97825
31.70000	-8.97919
31.80000	-8.98015
31.90000	-8.98114
32.00000	-8.98215
32.10000	-8.98319
32.20000	-8.98425
32.30000	-8.98533
32.40000	-8.98643
32.50000	-8.98756
32.60000	-8.98872
32.70000	-8.98991
32.80000	-8.99113
32.90000	-8.99237
33.00000	-8.99365
33.10000	-8.99495
33.20000	-8.99627
33.30000	-8.99761
33.40000	-8.99897
33.50000	-9.00032
33.60000	-9.00167
33.70000	-9.00301
33.80000	-9.00431
33.90000	-9.00558
34.00000	-9.00680
34.10000	-9.00796
34.20000	-9.00904
34.30000	-9.01004
34.40000	-9.01093
34.50000	-9.01171
34.60000	-9.01238
34.70000	-9.01291
34.80000	-9.01331
34.90000	-9.01357
35.00000	-9.01369
35.10000	-9.01366
35.20000	-9.01349
35.30000	-9.01318
35.40000	-9.01274
35.50000	-9.01217
35.60000	-9.01148
35.70000	-9.01067
35.80000	-9.00977
35.90000	-9.00878
36.00000	-9.00770
36.10000	-9.00656
36.20000	-9.00537
36.30000	-9.00413
36.40000	-9.00285
36.50000	-9.00155
36.60000	-9.00024
36.70000	-8.99891
36.80000	-8.99757
36.90000	-8.99624
37.00000	-8.99492
37.10000	-8.99360
37.20000	-8.99229
37.30000	-8.99100
37.40000	-8.98972
37.50000	-8.98845
37.60000	-8.98719
37.70000	-8.98595
37.80000	-8.98473
37.90000	-8.98352
38.00000	-8.98234
38.10000	-8.98117
38.20000	-8.98004
38.30000	-8.97893
38.40000	-8.97786
38.50000	-8.97684
38.60000	-8.97587
38.70000	-8.97496
38.80000	-8.97412
38.90000	-8.97337
39.00000	-8.97270
39.10000	-8.97214
39.20000	-8.97169
39.30000	-8.97136
39.40000	-8.97116
39.50000	-8.97110
39.60000	-8.97118
39.70000	-8.97141
39.80000	-8.97178
39.90000	-8.97230
40.00000	-8.97297
40.10000	-8.97378
40.20000	-8.97473
40.30000	-8.97581
40.40000	-8.97702
40.50000	-8.97833
40.60000	-8.97975
40.70000	-8.98125
40.80000	-8.98283
40.90000	-8.98446
41.00000	-8.98614
41.10000	-8.98785
41.20000	-8.98957
41.30000	-8.99130
41.40000	-8.99301
41.50000	-8.99470
41.60000	-8.99635
41.70000	-8.99796
41.80000	-8.99952
41.90000	-9.00101
42.00000	-9.00244
42.10000	-9.00380
42.20000	-9.00508
42.30000	-9.00629
42.40000	-9.00742
42.50000	-9.00848
42.60000	-9.00945
42.70000	-9.01035
42.80000	-9.01116
42.90000	-9.01190
43.00000	-9.01256
43.10000	-9.01314
43.20000	-9.01364
43.30000	-9.01405
43.40000	-9.01438
43.50000	-9.01462
43.60000	-9.01477
43.70000	-9.01483
43.80000	-9.01479
43.90000	-9.01466
44.00000	-9.01441
44.10000	-9.01406
44.20000	-9.01360
44.30000	-9.01303
44.40000	-9.01234
44.50000	-9.01154
44.60000	-9.01062
44.70000	-9.00960
44.80000	-9.00846
44.90000	-9.00723
45.00000	-9.00590
45.10000	-9.00448
45.20000	-9.00299
45.30000	-9.00143
45.40000	-8.99981
45.50000	-8.99815
45.60000	-8.99647
45.70000	-8.99477
45.80000	-8.99307
45.90000	-8.99139
46.00000	-8.98973
46.10000	-8.98812
46.20000	-8.98657
46.30000	-8.98508
46.40000	-8.98368
46.50000	-8.98236
46.60000	-8.98113
46.70000	-8.98001
46.80000	-8.97899
46.90000	-8.97809
47.00000	-8.97730
47.10000	-8.97662
47.20000	-8.97606
47.30000	-8.97560
47.40000	-8.97525
47.50000	-8.97501
47.60000	-8.97487
47.70000	-8.97483
47.80000	-8.97488
47.90000	-8.97501
48.00000	-8.97523
48.10000	-8.97552
48.20000	-8.97589
48.30000	-8.97633
48.40000	-8.97684
48.50000	-8.97742
48.60000	-8.97806
48.70000	-8.97876
48.80000	-8.97953
48.90000	-8.98035
49.00000	-8.98124
49.10000	-8.98219
49.20000	-8.98321
49.30000	-8.98428
49.40000	-8.98541
49.50000	-8.98659
49.60000	-8.98783
49.70000	-8.98912
49.80000	-8.99045
49.90000	-8.99182
50.00000	-8.99323
50.10000	-8.99465
50.20000	-8.99609
50.30000	-8.99754
50.40000	-8.99898
50.50000	-9.00041
50.60000	-9.00182
50.70000	-9.00318
50.80000	-9.00450
50.90000	-9.00576
51.00000	-9.00695
51.10000	-9.00806
51.20000	-9.00908
51.30000	-9.01001
51.40000	-9.01084
51.50000	-9.01156
51.60000	-9.01217
51.70000	-9.01266
51.80000	-9.01304
51.90000	-9.01331
52.00000	-9.01347
52.10000	-9.01351
52.20000	-9.01345
52.30000	-9.01330
52.40000	-9.01304
52.50000	-9.01270
52.60000	-9.01228
52.70000	-9.01178
52.80000	-9.01122
52.90000	-9.01060
53.00000	-9.00992
53.10000	-9.00919
53.20000	-9.00841
53.30000	-9.00760
53.40000	-9.00675
53.50000	-9.00587
53.60000	-9.00496
53.70000	-9.00402
53.80000	-9.00305
53.90000	-9.00206
54.00000	-9.00105
54.10000	-9.00001
54.20000	-8.99895
54.30000	-8.99787
54.40000	-8.99677
54.50000	-8.99566
54.60000	-8.99452
54.70000	-8.99338
54.80000	-8.99222
54.90000	-8.99106
55.00000	-8.98991
55.10000	-8.98876
55.20000	-8.98762
55.30000	-8.98651
55.40000	-8.98543
55.50000	-8.98439
55.60000	-8.98340
55.70000	-8.98246
55.80000	-8.98159
55.90000	-8.98079
56.00000	-8.98007
56.10000	-8.97943
56.20000	-8.97889
56.30000	-8.97845
56.40000	-8.97812
56.50000	-8.97788
56.60000	-8.97775
56.70000	-8.97773
56.80000	-8.97782
56.90000	-8.97801
57.00000	-8.97830
57.10000	-8.97868
57.20000	-8.97916
57.30000	-8.97972
57.40000	-8.98036
57.50000	-8.98107
57.60000	-8.98184
57.70000	-8.98268
57.80000	-8.98356
57.90000	-8.98449
58.00000	-8.98545
58.10000	-8.98645
58.20000	-8.98747
58.30000	-8.98851
58.40000	-8.98957
58.50000	-8.99064
58.60000	-8.99172
58.70000	-8.99281
58.80000	-8.99390
58.90000	-8.99500
59.00000	-8.99610
59.10000	-8.99720
59.20000	-8.99830
59.30000	-8.99940
59.40000	-9.00050
59.50000	-9.00159
59.60000	-9.00267
59.70000	-9.00374
59.80000	-9.00479
59.90000	-9.00582
60.00000	-9.00683
60.10000	-9.00780
60.20000	-9.00873
60.30000	-9.00962
60.40000	-9.01045
60.50000	-9.01122
60.60000	-9.01193
60.70000	-9.01256
60.80000	-9.01311
60.90000	-9.01357
61.00000	-9.01393
61.10000	-9.01419
61.20000	-9.01435
61.30000	-9.01440
61.40000	-9.01434
61.50000	-9.01416
61.60000	-9.01388
61.70000	-9.01348
61.80000	-9.01298
61.90000	-9.01237
62.00000	-9.01166
62.10000	-9.01086
62.20000	-9.00997
62.30000	-9.00900
62.40000	-9.00796
62.50000	-9.00686
62.60000	-9.00571
62.70000	-9.00451
62.80000	-9.00327
62.90000	-9.00200
63.00000	-9.00072
63.10000	-8.99942
63.20000	-8.99812
63.30000	-8.99682
63.40000	-8.99553
63.50000	-8.99426
63.60000	-8.99300
63.70000	-8.99177
63.80000	-8.99056
63.90000	-8.98939
64.00000	-8.98825
64.10000	-8.98714
64.20000	-8.98608
64.30000	-8.98506
64.40000	-8.98409
64.50000	-8.98316
64.60000	-8.98229
64.70000	-8.98147
64.80000	-8.98072
64.90000	-8.98003
65.00000	-8.97940
65.10000	-8.97885
65.20000	-8.97838
65.30000	-8.97799
65.40000	-8.97769
65.50000	-8.97748
65.60000	-8.97737
65.70000	-8.97737
65.80000	-8.97746
65.90000	-8.97767
66.00000	-8.97799
66.10000	-8.97841
66.20000	-8.97895
66.30000	-8.97961
66.40000	-8.98037
66.50000	-8.98123
66.60000	-8.98220
66.70000	-8.98326
66.80000	-8.98441
66.90000	-8.98564
67.00000	-8.98694
67.10000	-8.98831
67.20000	-8.98973
67.30000	-8.99119
67.40000	-8.99268
67.50000	-8.99419
67.60000	-8.99571
67.70000	-8.99722
67.80000	-8.99872
67.90000	-9.00020
68.00000	-9.00165
68.10000	-9.00305
68.20000	-9.00440
68.30000	-9.00570
68.40000	-9.00693
68.50000	-9.00809
68.60000	-9.00918
68.70000	-9.01019
68.80000	-9.01112
68.90000	-9.01196
69.00000	-9.01273
69.10000	-9.01340
69.20000	-9.01399
69.30000	-9.01449
69.40000	-9.01490
69.50000	-9.01523
69.60000	-9.01546
69.70000	-9.01561
69.80000	-9.01567
69.90000	-9.01564
70.00000	-9.01552
70.10000	-9.01532
70.20000	-9.01502
70.30000	-9.01464
70.40000	-9.01417
70.50000	-9.01360
70.60000	-9.01296
70.70000	-9.01222
70.80000	-9.01140
70.90000	-9.01049
71.00000	-9.00950
71.10000	-9.00844
71.20000	-9.00730
71.30000	-9.00609
71.40000	-9.00483
71.50000	-9.00350
71.60000	-9.00213
71.70000	-9.00072
71.80000	-8.99927
71.90000	-8.99781
72.00000	-8.99633
72.10000	-8.99486
72.20000	-8.99339
72.30000	-8.99195
72.40000	-8.99053
72.50000	-8.98916
72.60000	-8.98784
72.70000	-8.98659
72.80000	-8.98540
72.90000	-8.98429
73.00000	-8.98327
73.10000	-8.98234
73.20000	-8.98150
73.30000	-8.98077
73.40000	-8.98014
73.50000	-8.97961
73.60000	-8.97920
73.70000	-8.97888
73.80000	-8.97868
73.90000	-8.97858
74.00000	-8.97858
74.10000	-8.97867
74.20000	-8.97887
74.30000	-8.97915
74.40000	-8.97952
74.50000	-8.97997
74.60000	-8.98051
74.70000	-8.98111
74.80000	-8.98179
74.90000	-8.98253
75.00000	-8.98333
75.10000	-8.98419
75.20000	-8.98511
75.30000	-8.98607
75.40000	-8.98709
75.50000	-8.98814
75.60000	-8.98924
75.70000	-8.99038
75.80000	-8.99154
75.90000	-8.99274
76.00000	-8.99396
76.10000	-8.99520
76.20000	-8.99645
76.30000	-8.99772
76.40000	-8.99899
76.50000	-9.00025
76.60000	-9.00150
76.70000	-9.00274
76.80000	-9.00396
76.90000	-9.00514
77.00000	-9.00628
77.10000	-9.00737
77.20000	-9.00841
77.30000	-9.00939
77.40000	-9.01030
77.50000	-9.01113
77.60000	-9.01188
77.70000	-9.01255
77.80000	-9.01312
77.90000	-9.01360
78.00000	-9.01397
78.10000	-9.01425
78.20000	-9.01443
78.30000	-9.01451
78.40000	-9.01448
78.50000	-9.01436
78.60000	-9.01415
78.70000	-9.01384
78.80000	-9.01345
78.90000	-9.01297
79.00000	-9.01242
79.10000	-9.01180
79.20000	-9.01111
79.30000	-9.01036
79.40000	-9.00956
79.50000	-9.00871
79.60000	-9.00782
79.70000	-9.00690
79.80000	-9.00594
79.90000	-9.00496
80.00000	-9.00395
80.10000	-9.00293
80.20000	-9.00189
80.30000	-9.00084
80.40000	-8.99979
80.50000	-8.99873
80.60000	-8.99767
80.70000	-8.99661
80.80000	-8.99556
80.90000	-8.99451
81.00000	-8.99348
81.10000	-8.99246
81.20000	-8.99146
81.30000	-8.99048
81.40000	-8.98952
81.50000	-8.98860
81.60000	-8.98771
81.70000	-8.98686
81.80000	-8.98605
81.90000	-8.98530
82.00000	-8.98460
82.10000	-8.98396
82.20000	-8.98338
82.30000	-8.98288
82.40000	-8.98245
82.50000	-8.98211
82.60000	-8.98184
82.70000	-8.98166
82.80000	-8.98157
82.90000	-8.98157
83.00000	-8.98166
83.10000	-8.98184
83.20000	-8.98210
83.30000	-8.98245
83.40000	-8.98289
83.50000	-8.98341
83.60000	-8.98400
83.70000	-8.98467
83.80000	-8.98540
83.90000	-8.98620
84.00000	-8.98704
84.10000	-8.98794
84.20000	-8.98888
84.30000	-8.98985
84.40000	-8.99086
84.50000	-8.99189
84.60000	-8.99293
84.70000	-8.99399
84.80000	-8.99505
84.90000	-8.99612
85.00000	-8.99718
85.10000	-8.99824
85.20000	-8.99928
85.30000	-9.00031
85.40000	-9.00132
85.50000	-9.00232
85.60000	-9.00329
85.70000	-9.00423
85.80000	-9.00514
85.90000	-9.00603
86.00000	-9.00688
86.10000	-9.00769
86.20000	-9.00846
86.30000	-9.00919
86.40000	-9.00988
86.50000	-9.01051
86.60000	-9.01109
86.70000	-9.01162
86.80000	-9.01208
86.90000	-9.01248
87.00000	-9.01281
87.10000	-9.01307
87.20000	-9.01326
87.30000	-9.01337
87.40000	-9.01339
87.50000	-9.01334
87.60000	-9.01320
87.70000	-9.01297
87.80000	-9.01267
87.90000	-9.01227
88.00000	-9.01180
88.10000	-9.01124
88.20000	-9.01060
88.30000	-9.00989
88.40000	-9.00911
88.50000	-9.00826
88.60000	-9.00736
88.70000	-9.00640
88.80000	-9.00539
88.90000	-9.00434
89.00000	-9.00326
89.10000	-9.00215
89.20000	-9.00102
89.30000	-8.99988
89.40000	-8.99874
89.50000	-8.99760
89.60000	-8.99646
89.70000	-8.99534
89.80000	-8.99424
89.90000	-8.99317
90.00000	-8.99212
90.10000	-8.99111
90.20000	-8.99014
90.30000	-8.98921
90.40000	-8.98833
90.50000	-8.98749
90.60000	-8.98671
90.70000	-8.98598
90.80000	-8.98530
90.90000	-8.98469
91.00000	-8.98413
91.10000	-8.98363
91.20000	-8.98320
91.30000	-8.98284
91.40000	-8.98254
91.50000	-8.98232
91.60000	-8.98216
91.70000	-8.98208
91.80000	-8.98208
91.90000	-8.98215
92.00000	-8.98231
92.10000	-8.98254
92.20000	-8.98286
92.30000	-8.98325
92.40000	-8.98373
92.50000	-8.98429
92.60000	-8.98493
92.70000	-8.98565
92.80000	-8.98644
92.90000	-8.98731
93.00000	-8.98824
93.10000	-8.98924
93.20000	-8.99029
93.30000	-8.99139
93.40000	-8.99254
93.50000	-8.99373
93.60000	-8.99495
93.70000	-8.99618
93.80000	-8.99744
93.90000	-8.99869
94.00000	-8.99995
94.10000	-9.00119
94.20000	-9.00241
94.30000	-9.00361
94.40000	-9.00477
94.50000	-9.00588
94.60000	-9.00695
94.70000	-9.00796
94.80000	-9.00892
94.90000	-9.00980
95.00000	-9.01062
95.10000	-9.01136
95.20000	-9.01203
95.30000	-9.01262
95.40000	-9.01313
95.50000	-9.01356
95.60000	-9.01390
95.70000	-9.01417
95.80000	-9.01435
95.90000	-9.01445
96.00000	-9.01446
96.10000	-9.01440
96.20000	-9.01426
96.30000	-9.01403
96.40000	-9.01373
96.50000	-9.01336
96.60000	-9.01290
96.70000	-9.01238
96.80000	-9.01179
96.90000	-9.01112
97.00000	-9.01039
97.10000	-9.00960
97.20000	-9.00874
97.30000	-9.00783
97.40000	-9.00686
97.50000	-9.00584
97.60000	-9.00478
97.70000	-9.00367
97.80000	-9.00253
97.90000	-9.00136
98.00000	-9.00017
98.10000	-8.99895
98.20000	-8.99773
98.30000	-8.99651
98.40000	-8.99529
98.50000	-8.99409
98.60000	-8.99290
98.70000	-8.99175
98.80000	-8.99063
98.90000	-8.98955
99.00000	-8.98853
99.10000	-8.98756
99.20000	-8.98666
99.30000	-8.98583
99.40000	-8.98508
99.50000	-8.98440
99.60000	-8.98381
99.70000	-8.98331
99.80000	-8.98290
99.90000	-8.98258
100.00000	-8.98235
100.10000	-8.98221
100.20000	-8.98216
100.30000	-8.98221
100.40000	-8.98234
100.50000	-8.98256
100.60000	-8.98286
100.70000	-8.98324
100.80000	-8.98369
100.90000	-8.98422
101.00000	-8.98482
101.10000	-8.98548
101.20000	-8.98620
101.30000	-8.98697
101.40000	-8.98780
101.50000	-8.98867
101.60000	-8.98959
101.70000	-8.99054
101.80000	-8.99152
101.90000	-8.99254
102.00000	-8.99358
102.10000	-8.99464
102.20000	-8.99571
102.30000	-8.99680
102.40000	-8.99789
102.50000	-8.99899
102.60000	-9.00009
102.70000	-9.00118
102.80000	-9.00225
102.90000	-9.00331
103.00000	-9.00435
103.10000	-9.00536
103.20000	-9.00634
103.30000	-9.00727
103.40000	-9.00816
103.50000	-9.00900
103.60000	-9.00979
103.70000	-9.01051
103.80000	-9.01117
103.90000	-9.01176
104.00000	-9.01228
104.10000	-9.01271
104.20000	-9.01307
104.30000	-9.01335
104.40000	-9.01354
104.50000	-9.01364
104.60000	-9.01366
104.70000	-9.01359
104.80000	-9.01344
104.90000	-9.01321
105.00000	-9.01289
105.10000	-9.01250
105.20000	-9.01203
105.30000	-9.01149
105.40000	-9.01089
105.50000	-9.01023
105.60000	-9.00951
105.70000	-9.00874
105.80000	-9.00793
105.90000	-9.00708
106.00000	-9.00619
106.10000	-9.00527
106.20000	-9.00433
106.30000	-9.00337
106.40000	-9.00240
106.50000	-9.00142
106.60000	-9.00044
106.70000	-8.99945
106.80000	-8.99847
106.90000	-8.99750
107.00000	-8.99653
107.10000	-8.99559
107.20000	-8.99466
107.30000	-8.99375
107.40000	-8.99287
107.50000	-8.99201
107.60000	-8.99119
107.70000	-8.99040
107.80000	-8.98965
107.90000	-8.98894
108.00000	-8.98827
108.10000	-8.98766
108.20000	-8.98709
108.30000	-8.98658
108.40000	-8.98612
108.50000	-8.98573
108.60000	-8.98539
108.70000	-8.98513
108.80000	-8.98493
108.90000	-8.98480
109.00000	-8.98474
109.10000	-8.98476
109.20000	-8.98485
109.30000	-8.98501
109.40000	-8.98525
109.50000	-8.98555
109.60000	-8.98593
109.70000	-8.98637
109.80000	-8.98688
109.90000	-8.98746
110.00000	-8.98809
110.10000	-8.98877
110.20000	-8.98951
110.30000	-8.99029
110.40000	-8.99111
110.50000	-8.99197
110.60000	-8.99286
110.70000	-8.99377
