WSM
F3OF
DT2
PITCH
t(s)	PITCH(deg)
0.00000	10.00000
0.10000	9.97390
0.20000	9.88208
0.30000	9.70503
0.40000	9.43080
0.50000	9.05809
0.60000	8.59403
0.70000	8.04975
0.80000	7.43641
0.90000	6.76307
1.00000	6.03650
1.10000	5.26208
1.20000	4.44508
1.30000	3.59152
1.40000	2.70855
1.50000	1.80431
1.60000	0.88750
1.70000	-0.03297
1.80000	-0.94837
1.90000	-1.85023
2.00000	-2.73041
2.10000	-3.58106
2.20000	-4.39466
2.30000	-5.16406
2.40000	-5.88253
2.50000	-6.54393
2.60000	-7.14275
2.70000	-7.67422
2.80000	-8.13432
2.90000	-8.51977
3.00000	-8.82808
3.10000	-9.05742
3.20000	-9.20669
3.30000	-9.27543
3.40000	-9.26382
3.50000	-9.17264
3.60000	-9.00326
3.70000	-8.75761
3.80000	-8.43816
3.90000	-8.04786
4.00000	-7.59019
4.10000	-7.06907
4.20000	-6.48890
4.30000	-5.85452
4.40000	-5.17121
4.50000	-4.44463
4.60000	-3.68088
4.70000	-2.88639
4.80000	-2.06790
4.90000	-1.23246
5.00000	-0.38732
5.10000	0.46014
5.20000	1.30243
5.30000	2.13209
5.40000	2.94175
5.50000	3.72422
5.60000	4.47258
5.70000	5.18023
5.80000	5.84099
5.90000	6.44917
6.00000	6.99957
6.10000	7.48759
6.20000	7.90918
6.30000	8.26094
6.40000	8.54010
6.50000	8.74452
6.60000	8.87271
6.70000	8.92383
6.80000	8.89767
6.90000	8.79465
7.00000	8.61581
7.10000	8.36279
7.20000	8.03783
7.30000	7.64372
7.40000	7.18381
7.50000	6.66201
7.60000	6.08273
7.70000	5.45089
7.80000	4.77186
7.90000	4.05148
8.00000	3.29601
8.10000	2.51206
8.20000	1.70660
8.30000	0.88682
8.40000	0.06013
8.50000	-0.76594
8.60000	-1.58383
8.70000	-2.38606
8.80000	-3.16527
8.90000	-3.91437
9.00000	-4.62661
9.10000	-5.29563
9.20000	-5.91557
9.30000	-6.48110
9.40000	-6.98747
9.50000	-7.43055
9.60000	-7.80681
9.70000	-8.11339
9.80000	-8.34803
9.90000	-8.50910
10.00000	-8.59559
10.10000	-8.60708
10.20000	-8.54372
10.30000	-8.40624
10.40000	-8.19591
10.50000	-7.91454
10.60000	-7.56447
10.70000	-7.14856
10.80000	-6.67021
10.90000	-6.13331
11.00000	-5.54226
11.10000	-4.90198
11.20000	-4.21787
11.30000	-3.49580
11.40000	-2.74208
11.50000	-1.96344
11.60000	-1.16693
11.70000	-0.35992
11.80000	0.45006
11.90000	1.25533
12.00000	2.04823
12.10000	2.82118
12.20000	3.56681
12.30000	4.27807
12.40000	4.94828
12.50000	5.57128
12.60000	6.14145
12.70000	6.65377
12.80000	7.10388
12.90000	7.48807
13.00000	7.80333
13.10000	8.04731
13.20000	8.21832
13.30000	8.31534
13.40000	8.33799
13.50000	8.28649
13.60000	8.16167
13.70000	7.96492
13.80000	7.69820
13.90000	7.36400
14.00000	6.96536
14.10000	6.50579
14.20000	5.98935
14.30000	5.42055
14.40000	4.80436
14.50000	4.14623
14.60000	3.45201
14.70000	2.72792
14.80000	1.98055
14.90000	1.21675
15.00000	0.44358
15.10000	-0.33172
15.20000	-1.10190
15.30000	-1.85970
15.40000	-2.59803
15.50000	-3.31000
15.60000	-3.98903
15.70000	-4.62894
15.80000	-5.22400
15.90000	-5.76904
16.00000	-6.25941
16.10000	-6.69109
16.20000	-7.06068
16.30000	-7.36539
16.40000	-7.60308
16.50000	-7.77222
16.60000	-7.87191
16.70000	-7.90183
16.80000	-7.86225
16.90000	-7.75397
17.00000	-7.57836
17.10000	-7.33728
17.20000	-7.03312
17.30000	-6.66872
17.40000	-6.24739
17.50000	-5.77289
17.60000	-5.24940
17.70000	-4.68150
17.80000	-4.07416
17.90000	-3.43270
18.00000	-2.76275
18.10000	-2.07024
18.20000	-1.36134
18.30000	-0.64238
18.40000	0.08016
18.50000	0.79975
18.60000	1.50986
18.70000	2.20407
18.80000	2.87608
18.90000	3.51985
19.00000	4.12963
19.10000	4.70004
19.20000	5.22610
19.30000	5.70329
19.40000	6.12761
19.50000	6.49556
19.60000	6.80419
19.70000	7.05111
19.80000	7.23447
19.90000	7.35301
20.00000	7.40599
20.10000	7.39322
20.20000	7.31507
20.30000	7.17242
20.40000	6.96665
20.50000	6.69965
20.60000	6.37380
20.70000	5.99197
20.80000	5.55745
20.90000	5.07401
21.00000	4.54584
21.10000	3.97753
21.20000	3.37405
21.30000	2.74073
21.40000	2.08320
21.50000	1.40735
21.60000	0.71931
21.70000	0.02534
21.80000	-0.66820
21.90000	-1.35492
22.00000	-2.02850
22.10000	-2.68276
22.20000	-3.31169
22.30000	-3.90959
22.40000	-4.47108
22.50000	-4.99118
22.60000	-5.46534
22.70000	-5.88952
22.80000	-6.26016
22.90000	-6.57426
23.00000	-6.82933
23.10000	-7.02347
23.20000	-7.15530
23.30000	-7.22399
23.40000	-7.22926
23.50000	-7.17133
23.60000	-7.05096
23.70000	-6.86939
23.80000	-6.62836
23.90000	-6.33007
24.00000	-5.97719
24.10000	-5.57283
24.20000	-5.12050
24.30000	-4.62416
24.40000	-4.08813
24.50000	-3.51709
24.60000	-2.91608
24.70000	-2.29043
24.80000	-1.64572
24.90000	-0.98777
25.00000	-0.32254
25.10000	0.34390
25.20000	1.00541
25.30000	1.65593
25.40000	2.28945
25.50000	2.90014
25.60000	3.48242
25.70000	4.03100
25.80000	4.54094
25.90000	5.00771
26.00000	5.42723
26.10000	5.79590
26.20000	6.11065
26.30000	6.36891
26.40000	6.56867
26.50000	6.70845
26.60000	6.78732
26.70000	6.80487
26.80000	6.76125
26.90000	6.65709
27.00000	6.49355
27.10000	6.27228
27.20000	5.99539
27.30000	5.66544
27.40000	5.28545
27.50000	4.85884
27.60000	4.38943
27.70000	3.88142
27.80000	3.33935
27.90000	2.76806
28.00000	2.17269
28.10000	1.55861
28.20000	0.93137
28.30000	0.29668
28.40000	-0.33968
28.50000	-0.97189
28.60000	-1.59416
28.70000	-2.20084
28.80000	-2.78638
28.90000	-3.34549
29.00000	-3.87317
29.10000	-4.36472
29.20000	-4.81582
29.30000	-5.22259
29.40000	-5.58157
29.50000	-5.88979
29.60000	-6.14475
29.70000	-6.34445
29.80000	-6.48741
29.90000	-6.57264
30.00000	-6.59965
30.10000	-6.56844
30.20000	-6.47952
30.30000	-6.33386
30.40000	-6.13288
30.50000	-5.87849
30.60000	-5.57299
30.70000	-5.21914
30.80000	-4.82008
30.90000	-4.37934
31.00000	-3.90081
31.10000	-3.38874
31.20000	-2.84765
31.30000	-2.28237
31.40000	-1.69795
31.50000	-1.09964
31.60000	-0.49286
31.70000	0.11690
31.80000	0.72411
31.90000	1.32322
32.00000	1.90879
32.10000	2.47551
32.20000	3.01826
32.30000	3.53217
32.40000	4.01267
32.50000	4.45553
32.60000	4.85692
32.70000	5.21341
32.80000	5.52203
32.90000	5.78025
33.00000	5.98603
33.10000	6.13780
33.20000	6.23449
33.30000	6.27548
33.40000	6.26066
33.50000	6.19038
33.60000	6.06544
33.70000	5.88710
33.80000	5.65704
33.90000	5.37740
34.00000	5.05069
34.10000	4.67983
34.20000	4.26811
34.30000	3.81918
34.40000	3.33701
34.50000	2.82589
34.60000	2.29038
34.70000	1.73527
34.80000	1.16555
34.90000	0.58639
35.00000	0.00304
35.10000	-0.57918
35.20000	-1.15494
35.30000	-1.71899
35.40000	-2.26618
35.50000	-2.79152
35.60000	-3.29025
35.70000	-3.75790
35.80000	-4.19030
35.90000	-4.58365
36.00000	-4.93453
36.10000	-5.23996
36.20000	-5.49739
36.30000	-5.70471
36.40000	-5.86030
36.50000	-5.96299
36.60000	-6.01210
36.70000	-6.00739
36.80000	-5.94909
36.90000	-5.83790
37.00000	-5.67493
37.10000	-5.46174
37.20000	-5.20031
37.30000	-4.89300
37.40000	-4.54258
37.50000	-4.15217
37.60000	-3.72525
37.70000	-3.26561
37.80000	-2.77736
37.90000	-2.26484
38.00000	-1.73267
38.10000	-1.18564
38.20000	-0.62869
38.30000	-0.06688
38.40000	0.49468
38.50000	1.05086
38.60000	1.59660
38.70000	2.12693
38.80000	2.63704
38.90000	3.12232
39.00000	3.57842
39.10000	4.00130
39.20000	4.38724
39.30000	4.73290
39.40000	5.03535
39.50000	5.29205
39.60000	5.50091
39.70000	5.66028
39.80000	5.76898
39.90000	5.82624
40.00000	5.83178
40.10000	5.78573
40.20000	5.68870
40.30000	5.54169
40.40000	5.34613
40.50000	5.10387
40.60000	4.81714
40.70000	4.48854
40.80000	4.12104
40.90000	3.71794
41.00000	3.28286
41.10000	2.81971
41.20000	2.33265
41.30000	1.82607
41.40000	1.30457
41.50000	0.77286
41.60000	0.23578
41.70000	-0.30176
41.80000	-0.83487
41.90000	-1.35869
42.00000	-1.86844
42.10000	-2.35952
42.20000	-2.82749
42.30000	-3.26815
42.40000	-3.67761
42.50000	-4.05225
42.60000	-4.38884
42.70000	-4.68450
42.80000	-4.93675
42.90000	-5.14353
43.00000	-5.30319
43.10000	-5.41451
43.20000	-5.47670
43.30000	-5.48940
43.40000	-5.45269
43.50000	-5.36705
43.60000	-5.23339
43.70000	-5.05301
43.80000	-4.82760
43.90000	-4.55924
44.00000	-4.25036
44.10000	-3.90375
44.20000	-3.52251
44.30000	-3.11006
44.40000	-2.67009
44.50000	-2.20655
44.60000	-1.72361
44.70000	-1.22562
44.80000	-0.71708
44.90000	-0.20262
45.00000	0.31310
45.10000	0.82538
45.20000	1.32957
45.30000	1.82108
45.40000	2.29548
45.50000	2.74848
45.60000	3.17604
45.70000	3.57436
45.80000	3.93994
45.90000	4.26962
46.00000	4.56058
46.10000	4.81038
46.20000	5.01696
46.30000	5.17868
46.40000	5.29430
46.50000	5.36299
46.60000	5.38433
46.70000	5.35832
46.80000	5.28535
46.90000	5.16621
47.00000	5.00209
47.10000	4.79453
47.20000	4.54545
47.30000	4.25711
47.40000	3.93212
47.50000	3.57337
47.60000	3.18408
47.70000	2.76771
47.80000	2.32797
47.90000	1.86881
48.00000	1.39433
48.10000	0.90881
48.20000	0.41661
48.30000	-0.07781
48.40000	-0.56998
48.50000	-1.05545
48.60000	-1.52983
48.70000	-1.98883
48.80000	-2.42832
48.90000	-2.84437
49.00000	-3.23327
49.10000	-3.59159
49.20000	-3.91619
49.30000	-4.20429
49.40000	-4.45341
49.50000	-4.66148
49.60000	-4.82679
49.70000	-4.94803
49.80000	-5.02427
49.90000	-5.05501
50.00000	-5.04010
50.10000	-4.97983
50.20000	-4.87485
50.30000	-4.72620
50.40000	-4.53527
50.50000	-4.30384
50.60000	-4.03401
50.70000	-3.72822
50.80000	-3.38921
50.90000	-3.02003
51.00000	-2.62399
51.10000	-2.20465
51.20000	-1.76578
51.30000	-1.31135
51.40000	-0.84547
51.50000	-0.37238
51.60000	0.10362
51.70000	0.57819
51.80000	1.04700
51.90000	1.50577
52.00000	1.95032
52.10000	2.37663
52.20000	2.78083
52.30000	3.15930
52.40000	3.50866
52.50000	3.82585
52.60000	4.10810
52.70000	4.35297
52.80000	4.55841
52.90000	4.72272
53.00000	4.84458
53.10000	4.92307
53.20000	4.95763
53.30000	4.94812
53.40000	4.89476
53.50000	4.79815
53.60000	4.65926
53.70000	4.47943
53.80000	4.26034
53.90000	4.00399
54.00000	3.71271
54.10000	3.38915
54.20000	3.03620
54.30000	2.65704
54.40000	2.25508
54.50000	1.83394
54.60000	1.39741
54.70000	0.94944
54.80000	0.49408
54.90000	0.03545
55.00000	-0.42227
55.10000	-0.87494
55.20000	-1.31844
55.30000	-1.74877
55.40000	-2.16205
55.50000	-2.55456
55.60000	-2.92280
55.70000	-3.26352
55.80000	-3.57373
55.90000	-3.85075
56.00000	-4.09221
56.10000	-4.29610
56.20000	-4.46073
56.30000	-4.58480
56.40000	-4.66738
56.50000	-4.70789
56.60000	-4.70613
56.70000	-4.66228
56.80000	-4.57686
56.90000	-4.45078
57.00000	-4.28526
57.10000	-4.08186
57.20000	-3.84249
57.30000	-3.56934
57.40000	-3.26488
57.50000	-2.93189
57.60000	-2.57337
57.70000	-2.19255
57.80000	-1.79286
57.90000	-1.37793
58.00000	-0.95149
58.10000	-0.51742
58.20000	-0.07964
58.30000	0.35788
58.40000	0.79117
58.50000	1.21629
58.60000	1.62942
58.70000	2.02680
58.80000	2.40489
58.90000	2.76029
59.00000	3.08985
59.10000	3.39067
59.20000	3.66013
59.30000	3.89590
59.40000	4.09598
59.50000	4.25870
59.60000	4.38273
59.70000	4.46709
59.80000	4.51116
59.90000	4.51468
60.00000	4.47772
60.10000	4.40074
60.20000	4.28451
60.30000	4.13014
60.40000	3.93908
60.50000	3.71308
60.60000	3.45420
60.70000	3.16476
60.80000	2.84738
60.90000	2.50490
61.00000	2.14040
61.10000	1.75715
61.20000	1.35860
61.30000	0.94833
61.40000	0.53005
61.50000	0.10752
61.60000	-0.31541
61.70000	-0.73495
61.80000	-1.14728
61.90000	-1.54868
62.00000	-1.93555
62.10000	-2.30440
62.20000	-2.65195
62.30000	-2.97510
62.40000	-3.27101
62.50000	-3.53710
62.60000	-3.77106
62.70000	-3.97091
62.80000	-4.13496
62.90000	-4.26187
63.00000	-4.35063
63.10000	-4.40059
63.20000	-4.41141
63.30000	-4.38312
63.40000	-4.31610
63.50000	-4.21103
63.60000	-4.06894
63.70000	-3.89119
63.80000	-3.67942
63.90000	-3.43557
64.00000	-3.16189
64.10000	-2.86084
64.20000	-2.53516
64.30000	-2.18779
64.40000	-1.82189
64.50000	-1.44076
64.60000	-1.04786
64.70000	-0.64676
64.80000	-0.24110
64.90000	0.16543
65.00000	0.56914
65.10000	0.96635
65.20000	1.35346
65.30000	1.72696
65.40000	2.08350
65.50000	2.41987
65.60000	2.73307
65.70000	3.02033
65.80000	3.27913
65.90000	3.50722
66.00000	3.70264
66.10000	3.86375
66.20000	3.98922
66.30000	4.07803
66.40000	4.12952
66.50000	4.14335
66.60000	4.11951
66.70000	4.05832
66.80000	3.96042
66.90000	3.82679
67.00000	3.65869
67.10000	3.45769
67.20000	3.22565
67.30000	2.96469
67.40000	2.67718
67.50000	2.36574
67.60000	2.03318
67.70000	1.68252
67.80000	1.31694
67.90000	0.93973
68.00000	0.55432
68.10000	0.16420
68.20000	-0.22708
68.30000	-0.61600
68.40000	-0.99902
68.50000	-1.37268
68.60000	-1.73363
68.70000	-2.07862
68.80000	-2.40456
68.90000	-2.70857
69.00000	-2.98797
69.10000	-3.24031
69.20000	-3.46341
69.30000	-3.65537
69.40000	-3.81457
69.50000	-3.93970
69.60000	-4.02977
69.70000	-4.08407
69.80000	-4.10226
69.90000	-4.08429
70.00000	-4.03041
70.10000	-3.94123
70.20000	-3.81761
70.30000	-3.66074
70.40000	-3.47209
70.50000	-3.25340
70.60000	-3.00668
70.70000	-2.73416
70.80000	-2.43832
70.90000	-2.12183
71.00000	-1.78755
71.10000	-1.43850
71.20000	-1.07783
71.30000	-0.70879
71.40000	-0.33473
71.50000	0.04099
71.60000	0.41497
71.70000	0.78384
71.80000	1.14427
71.90000	1.49304
72.00000	1.82702
72.10000	2.14322
72.20000	2.43886
72.30000	2.71133
72.40000	2.95824
72.50000	3.17746
72.60000	3.36712
72.70000	3.52560
72.80000	3.65159
72.90000	3.74408
73.00000	3.80234
73.10000	3.82597
73.20000	3.81485
73.30000	3.76918
73.40000	3.68946
73.50000	3.57647
73.60000	3.43130
73.70000	3.25531
73.80000	3.05011
73.90000	2.81758
74.00000	2.55983
74.10000	2.27921
74.20000	1.97824
74.30000	1.65965
74.40000	1.32633
74.50000	0.98127
74.60000	0.62761
74.70000	0.26855
74.80000	-0.09266
74.90000	-0.45275
75.00000	-0.80845
75.10000	-1.15656
75.20000	-1.49393
75.30000	-1.81752
75.40000	-2.12443
75.50000	-2.41191
75.60000	-2.67742
75.70000	-2.91861
75.80000	-3.13338
75.90000	-3.31985
76.00000	-3.47643
76.10000	-3.60179
76.20000	-3.69491
76.30000	-3.75503
76.40000	-3.78170
76.50000	-3.77477
76.60000	-3.73437
76.70000	-3.66095
76.80000	-3.55522
76.90000	-3.41818
77.00000	-3.25111
77.10000	-3.05554
77.20000	-2.83326
77.30000	-2.58628
77.40000	-2.31683
77.50000	-2.02735
77.60000	-1.72046
77.70000	-1.39892
77.80000	-1.06564
77.90000	-0.72363
78.00000	-0.37599
78.10000	-0.02586
78.20000	0.32359
78.30000	0.66920
78.40000	1.00786
78.50000	1.33649
78.60000	1.65216
78.70000	1.95204
78.80000	2.23345
78.90000	2.49391
79.00000	2.73111
79.10000	2.94299
79.20000	3.12773
79.30000	3.28374
79.40000	3.40973
79.50000	3.50465
79.60000	3.56776
79.70000	3.59860
79.80000	3.59698
79.90000	3.56303
80.00000	3.49713
80.10000	3.39995
80.20000	3.27246
80.30000	3.11585
80.40000	2.93159
80.50000	2.72138
80.60000	2.48716
80.70000	2.23107
80.80000	1.95544
80.90000	1.66278
81.00000	1.35576
81.10000	1.03717
81.20000	0.70990
81.30000	0.37693
81.40000	0.04128
81.50000	-0.29399
81.60000	-0.62584
81.70000	-0.95126
81.80000	-1.26732
81.90000	-1.57115
82.00000	-1.86003
82.10000	-2.13137
82.20000	-2.38276
82.30000	-2.61197
82.40000	-2.81699
82.50000	-2.99603
82.60000	-3.14756
82.70000	-3.27029
82.80000	-3.36319
82.90000	-3.42551
83.00000	-3.45679
83.10000	-3.45681
83.20000	-3.42566
83.30000	-3.36369
83.40000	-3.27152
83.50000	-3.15004
83.60000	-3.00039
83.70000	-2.82396
83.80000	-2.62237
83.90000	-2.39746
84.00000	-2.15128
84.10000	-1.88606
84.20000	-1.60421
84.30000	-1.30828
84.40000	-1.00095
84.50000	-0.68499
84.60000	-0.36327
84.70000	-0.03870
84.80000	0.28580
84.90000	0.60730
85.00000	0.92289
85.10000	1.22975
85.20000	1.52512
85.30000	1.80637
85.40000	2.07100
85.50000	2.31668
85.60000	2.54123
85.70000	2.74272
85.80000	2.91941
85.90000	3.06978
86.00000	3.19258
86.10000	3.28680
86.20000	3.35168
86.30000	3.38673
86.40000	3.39174
86.50000	3.36675
86.60000	3.31206
86.70000	3.22824
86.80000	3.11610
86.90000	2.97673
87.00000	2.81141
87.10000	2.62167
87.20000	2.40927
87.30000	2.17613
87.40000	1.92439
87.50000	1.65632
87.60000	1.37437
87.70000	1.08108
87.80000	0.77912
87.90000	0.47123
88.00000	0.16019
88.10000	-0.15118
88.20000	-0.46006
88.30000	-0.76367
88.40000	-1.05926
88.50000	-1.34417
88.60000	-1.61584
88.70000	-1.87186
88.80000	-2.10993
88.90000	-2.32795
89.00000	-2.52401
89.10000	-2.69640
89.20000	-2.84362
89.30000	-2.96442
89.40000	-3.05779
89.50000	-3.12295
89.60000	-3.15941
89.70000	-3.16690
89.80000	-3.14544
89.90000	-3.09527
90.00000	-3.01692
90.10000	-2.91114
90.20000	-2.77893
90.30000	-2.62153
90.40000	-2.44038
90.50000	-2.23715
90.60000	-2.01369
90.70000	-1.77203
90.80000	-1.51438
90.90000	-1.24305
91.00000	-0.96052
91.10000	-0.66935
91.20000	-0.37217
91.30000	-0.07167
91.40000	0.22943
91.50000	0.52840
91.60000	0.82254
91.70000	1.10921
91.80000	1.38583
91.90000	1.64991
92.00000	1.89910
92.10000	2.13117
92.20000	2.34409
92.30000	2.53596
92.40000	2.70514
92.50000	2.85014
92.60000	2.96973
92.70000	3.06292
92.80000	3.12892
92.90000	3.16724
93.00000	3.17759
93.10000	3.15996
93.20000	3.11457
93.30000	3.04190
93.40000	2.94265
93.50000	2.81778
93.60000	2.66845
93.70000	2.49605
93.80000	2.30216
93.90000	2.08856
94.00000	1.85720
94.10000	1.61018
94.20000	1.34975
94.30000	1.07828
94.40000	0.79823
94.50000	0.51213
94.60000	0.22259
94.70000	-0.06779
94.80000	-0.35637
94.90000	-0.64055
95.00000	-0.91777
95.10000	-1.18554
95.20000	-1.44147
95.30000	-1.68326
95.40000	-1.90877
95.50000	-2.11601
95.60000	-2.30316
95.70000	-2.46861
95.80000	-2.61091
95.90000	-2.72887
96.00000	-2.82149
96.10000	-2.88802
96.20000	-2.92795
96.30000	-2.94100
96.40000	-2.92711
96.50000	-2.88650
96.60000	-2.81960
96.70000	-2.72708
96.80000	-2.60982
96.90000	-2.46894
97.00000	-2.30575
97.10000	-2.12175
97.20000	-1.91865
97.30000	-1.69830
97.40000	-1.46271
97.50000	-1.21404
97.60000	-0.95453
97.70000	-0.68656
97.80000	-0.41255
97.90000	-0.13498
98.00000	0.14362
98.10000	0.42075
98.20000	0.69388
98.30000	0.96058
98.40000	1.21842
98.50000	1.46512
98.60000	1.69845
98.70000	1.91634
98.80000	2.11686
98.90000	2.29826
99.00000	2.45894
99.10000	2.59751
99.20000	2.71278
99.30000	2.80377
99.40000	2.86973
99.50000	2.91013
99.60000	2.92468
99.70000	2.91328
99.80000	2.87612
99.90000	2.81357
100.00000	2.72623
100.10000	2.61495
100.20000	2.48074
100.30000	2.32486
100.40000	2.14872
100.50000	1.95392
100.60000	1.74224
100.70000	1.51559
100.80000	1.27602
100.90000	1.02570
101.00000	0.76688
101.10000	0.50190
101.20000	0.23315
101.30000	-0.03694
101.40000	-0.30595
101.50000	-0.57146
101.60000	-0.83109
101.70000	-1.08250
101.80000	-1.32345
101.90000	-1.55179
102.00000	-1.76550
102.10000	-1.96269
102.20000	-2.14163
102.30000	-2.30076
102.40000	-2.43870
102.50000	-2.55427
102.60000	-2.64649
102.70000	-2.71461
102.80000	-2.75808
102.90000	-2.77658
103.00000	-2.77000
103.10000	-2.73848
103.20000	-2.68235
103.30000	-2.60219
103.40000	-2.49875
103.50000	-2.37304
103.60000	-2.22621
103.70000	-2.05964
103.80000	-1.87486
103.90000	-1.67357
104.00000	-1.45760
104.10000	-1.22895
104.20000	-0.98968
104.30000	-0.74199
104.40000	-0.48812
104.50000	-0.23040
104.60000	0.02884
104.70000	0.28724
104.80000	0.54247
104.90000	0.79220
105.00000	1.03418
105.10000	1.26623
105.20000	1.48626
105.30000	1.69232
105.40000	1.88255
105.50000	2.05527
105.60000	2.20896
105.70000	2.34228
105.80000	2.45406
105.90000	2.54336
106.00000	2.60941
106.10000	2.65168
106.20000	2.66985
106.30000	2.66379
106.40000	2.63361
106.50000	2.57965
106.60000	2.50242
106.70000	2.40266
106.80000	2.28131
106.90000	2.13950
107.00000	1.97853
107.10000	1.79988
107.20000	1.60517
107.30000	1.39618
107.40000	1.17482
107.50000	0.94308
107.60000	0.70308
107.70000	0.45698
107.80000	0.20701
107.90000	-0.04457
108.00000	-0.29549
108.10000	-0.54349
108.20000	-0.78634
108.30000	-1.02186
108.40000	-1.24795
108.50000	-1.46259
108.60000	-1.66387
108.70000	-1.85003
108.80000	-2.01942
108.90000	-2.17058
109.00000	-2.30218
109.10000	-2.41312
109.20000	-2.50245
109.30000	-2.56943
109.40000	-2.61354
109.50000	-2.63445
109.60000	-2.63202
109.70000	-2.60636
109.80000	-2.55776
109.90000	-2.48671
110.00000	-2.39390
110.10000	-2.28023
110.20000	-2.14675
110.30000	-1.99472
110.40000	-1.82553
110.50000	-1.64075
110.60000	-1.44207
110.70000	-1.23129
110.80000	-1.01035
110.90000	-0.78124
111.00000	-0.54606
111.10000	-0.30693
111.20000	-0.06603
111.30000	0.17448
111.40000	0.41242
111.50000	0.64565
111.60000	0.87205
111.70000	1.08962
111.80000	1.29639
111.90000	1.49053
112.00000	1.67031
112.10000	1.83414
112.20000	1.98058
112.30000	2.10835
112.40000	2.21635
112.50000	2.30366
112.60000	2.36953
112.70000	2.41342
112.80000	2.43500
112.90000	2.43412
113.00000	2.41083
113.10000	2.36540
113.20000	2.29827
113.30000	2.21009
113.40000	2.10170
113.50000	1.97411
113.60000	1.82848
113.70000	1.66617
