   Wave #: 	2
Wave amplitude (m): 	0.314
Wave omega (rad/s): 	1.570796327
Time (s)     Heave (m)
0.01           -2.0000
0.03           -1.9999
0.04           -1.9999
0.06           -1.9998
0.07           -1.9997
0.09           -1.9995
0.10           -1.9994
0.12           -1.9992
0.14           -1.9990
0.15           -1.9988
0.17           -1.9986
0.18           -1.9983
0.20           -1.9981
0.21           -1.9978
0.23           -1.9975
0.24           -1.9973
0.26           -1.9970
0.27           -1.9966
0.29           -1.9963
0.30           -1.9960
0.32           -1.9957
0.33           -1.9953
0.35           -1.9950
0.36           -1.9947
0.38           -1.9943
0.39           -1.9940
0.41           -1.9936
0.42           -1.9933
0.44           -1.9929
0.45           -1.9926
0.47           -1.9923
0.48           -1.9919
0.50           -1.9916
0.51           -1.9913
0.53           -1.9910
0.54           -1.9907
0.56           -1.9904
0.57           -1.9901
0.59           -1.9898
0.60           -1.9896
0.62           -1.9893
0.63           -1.9891
0.65           -1.9889
0.66           -1.9887
0.68           -1.9885
0.69           -1.9883
0.71           -1.9882
0.72           -1.9881
0.74           -1.9879
0.75           -1.9879
0.77           -1.9878
0.78           -1.9877
0.80           -1.9877
0.81           -1.9877
0.83           -1.9878
0.84           -1.9878
0.86           -1.9879
0.87           -1.9880
0.89           -1.9881
0.90           -1.9883
0.92           -1.9885
0.93           -1.9887
0.95           -1.9889
0.96           -1.9892
0.98           -1.9895
0.99           -1.9898
1.01           -1.9902
1.02           -1.9905
1.04           -1.9910
1.05           -1.9914
1.07           -1.9919
1.08           -1.9924
1.10           -1.9929
1.11           -1.9935
1.12           -1.9941
1.14           -1.9947
1.15           -1.9954
1.17           -1.9961
1.18           -1.9968
1.20           -1.9975
1.21           -1.9983
1.23           -1.9991
1.24           -2.0000
1.26           -2.0008
1.27           -2.0017
1.29           -2.0027
1.30           -2.0036
1.32           -2.0046
1.33           -2.0056
1.35           -2.0067
1.36           -2.0077
1.38           -2.0088
1.39           -2.0100
1.41           -2.0111
1.42           -2.0123
1.44           -2.0135
1.45           -2.0147
1.47           -2.0159
1.48           -2.0172
1.50           -2.0185
1.51           -2.0198
1.53           -2.0211
1.54           -2.0225
1.56           -2.0239
1.57           -2.0252
1.59           -2.0266
1.60           -2.0281
1.62           -2.0295
1.63           -2.0309
1.65           -2.0324
1.66           -2.0339
1.68           -2.0353
1.69           -2.0368
1.71           -2.0383
1.72           -2.0399
1.74           -2.0414
1.75           -2.0429
1.77           -2.0444
1.78           -2.0459
1.80           -2.0475
1.81           -2.0490
1.83           -2.0506
1.84           -2.0521
1.86           -2.0536
1.87           -2.0551
1.89           -2.0567
1.90           -2.0582
1.92           -2.0597
1.93           -2.0612
1.95           -2.0627
1.96           -2.0642
1.98           -2.0657
1.99           -2.0671
2.01           -2.0686
2.02           -2.0700
2.04           -2.0714
2.05           -2.0728
2.07           -2.0742
2.08           -2.0755
2.10           -2.0769
2.11           -2.0782
2.13           -2.0795
2.14           -2.0807
2.16           -2.0820
2.17           -2.0832
2.19           -2.0844
2.20           -2.0855
2.22           -2.0866
2.23           -2.0877
2.25           -2.0888
2.26           -2.0898
2.28           -2.0908
2.29           -2.0917
2.31           -2.0927
2.32           -2.0935
2.34           -2.0944
2.35           -2.0952
2.37           -2.0959
2.38           -2.0966
2.40           -2.0973
2.41           -2.0979
2.43           -2.0985
2.44           -2.0990
2.46           -2.0995
2.47           -2.1000
2.49           -2.1004
2.50           -2.1007
2.52           -2.1010
2.53           -2.1012
2.55           -2.1014
2.56           -2.1016
2.58           -2.1017
2.59           -2.1017
2.61           -2.1017
2.62           -2.1016
2.64           -2.1015
2.65           -2.1013
2.67           -2.1011
2.69           -2.1008
2.70           -2.1005
2.72           -2.1001
2.73           -2.0996
2.75           -2.0991
2.76           -2.0985
2.78           -2.0979
2.79           -2.0972
2.81           -2.0965
2.82           -2.0957
2.84           -2.0948
2.85           -2.0939
2.87           -2.0930
2.88           -2.0919
2.90           -2.0909
2.91           -2.0897
2.93           -2.0885
2.94           -2.0873
2.96           -2.0860
2.97           -2.0846
2.99           -2.0832
3.00           -2.0818
3.02           -2.0802
3.03           -2.0787
3.05           -2.0770
3.06           -2.0754
3.08           -2.0736
3.09           -2.0718
3.11           -2.0700
3.12           -2.0681
3.14           -2.0662
3.15           -2.0642
3.17           -2.0622
3.18           -2.0601
3.20           -2.0580
3.21           -2.0558
3.23           -2.0536
3.24           -2.0514
3.26           -2.0491
3.27           -2.0467
3.29           -2.0444
3.30           -2.0420
3.32           -2.0395
3.33           -2.0370
3.35           -2.0345
3.36           -2.0320
3.38           -2.0294
3.39           -2.0268
3.41           -2.0241
3.42           -2.0214
3.44           -2.0187
3.45           -2.0160
3.47           -2.0132
3.48           -2.0105
3.50           -2.0077
3.51           -2.0048
3.53           -2.0020
3.54           -1.9991
3.56           -1.9963
3.57           -1.9934
3.59           -1.9905
3.60           -1.9876
3.62           -1.9847
3.63           -1.9817
3.65           -1.9788
3.66           -1.9759
3.68           -1.9729
3.69           -1.9700
3.71           -1.9670
3.72           -1.9641
3.74           -1.9612
3.75           -1.9582
3.77           -1.9553
3.78           -1.9524
3.80           -1.9495
3.81           -1.9466
3.83           -1.9437
3.84           -1.9409
3.86           -1.9380
3.87           -1.9352
3.89           -1.9324
3.90           -1.9296
3.92           -1.9268
3.93           -1.9241
3.95           -1.9214
3.96           -1.9187
3.98           -1.9161
3.99           -1.9135
4.01           -1.9109
4.02           -1.9083
4.04           -1.9058
4.05           -1.9033
4.07           -1.9009
4.08           -1.8985
4.10           -1.8962
4.11           -1.8939
4.13           -1.8916
4.14           -1.8894
4.16           -1.8872
4.17           -1.8851
4.19           -1.8830
4.20           -1.8810
4.22           -1.8791
4.23           -1.8772
4.25           -1.8753
4.26           -1.8736
4.28           -1.8718
4.29           -1.8702
4.31           -1.8686
4.32           -1.8670
4.34           -1.8656
4.35           -1.8642
4.37           -1.8628
4.38           -1.8615
4.40           -1.8603
4.41           -1.8592
4.43           -1.8581
4.44           -1.8571
4.46           -1.8562
4.47           -1.8553
4.49           -1.8546
4.50           -1.8538
4.51           -1.8532
4.53           -1.8527
4.54           -1.8522
4.56           -1.8518
4.57           -1.8514
4.59           -1.8512
4.60           -1.8510
4.62           -1.8509
4.63           -1.8509
4.65           -1.8510
4.66           -1.8511
4.68           -1.8513
4.69           -1.8516
4.71           -1.8520
4.72           -1.8524
4.74           -1.8530
4.75           -1.8536
4.77           -1.8543
4.78           -1.8550
4.80           -1.8559
4.81           -1.8568
4.83           -1.8578
4.84           -1.8589
4.86           -1.8601
4.87           -1.8613
4.89           -1.8626
4.90           -1.8640
4.92           -1.8655
4.93           -1.8670
4.95           -1.8687
4.96           -1.8704
4.98           -1.8721
4.99           -1.8740
5.01           -1.8759
5.02           -1.8779
5.04           -1.8799
5.05           -1.8820
5.07           -1.8842
5.08           -1.8865
5.10           -1.8888
5.11           -1.8912
5.13           -1.8936
5.14           -1.8962
5.16           -1.8987
5.17           -1.9014
5.19           -1.9041
5.20           -1.9068
5.22           -1.9096
5.23           -1.9125
5.25           -1.9154
5.26           -1.9184
5.28           -1.9214
5.29           -1.9245
5.31           -1.9276
5.32           -1.9308
5.34           -1.9340
5.35           -1.9372
5.37           -1.9405
5.38           -1.9439
5.40           -1.9472
5.41           -1.9506
5.43           -1.9541
5.44           -1.9576
5.46           -1.9611
5.47           -1.9646
5.49           -1.9682
5.50           -1.9717
5.52           -1.9754
5.53           -1.9790
5.55           -1.9826
5.56           -1.9863
5.58           -1.9900
5.59           -1.9937
5.61           -1.9974
5.62           -2.0011
5.64           -2.0048
5.65           -2.0086
5.67           -2.0123
5.68           -2.0160
5.70           -2.0198
5.71           -2.0235
5.73           -2.0272
5.74           -2.0310
5.76           -2.0347
5.77           -2.0384
5.79           -2.0421
5.80           -2.0457
5.82           -2.0494
5.83           -2.0530
5.85           -2.0567
5.86           -2.0603
5.88           -2.0638
5.89           -2.0674
5.91           -2.0709
5.92           -2.0744
5.94           -2.0778
5.95           -2.0812
5.97           -2.0846
5.98           -2.0880
6.00           -2.0913
6.01           -2.0945
6.03           -2.0977
6.04           -2.1009
6.06           -2.1040
6.07           -2.1071
6.09           -2.1101
6.10           -2.1131
6.12           -2.1160
6.13           -2.1189
6.15           -2.1217
6.16           -2.1244
6.18           -2.1271
6.19           -2.1297
6.21           -2.1323
6.22           -2.1347
6.24           -2.1372
6.25           -2.1395
6.27           -2.1418
6.28           -2.1440
6.30           -2.1461
6.31           -2.1482
6.33           -2.1502
6.34           -2.1521
6.36           -2.1539
6.37           -2.1557
6.39           -2.1573
6.40           -2.1589
6.42           -2.1604
6.43           -2.1619
6.45           -2.1632
6.46           -2.1645
6.48           -2.1657
6.49           -2.1667
6.51           -2.1677
6.52           -2.1687
6.54           -2.1695
6.55           -2.1702
6.57           -2.1709
6.58           -2.1714
6.60           -2.1719
6.61           -2.1723
6.63           -2.1725
6.64           -2.1727
6.66           -2.1728
6.67           -2.1729
6.69           -2.1728
6.70           -2.1726
6.72           -2.1723
6.73           -2.1720
6.75           -2.1715
6.76           -2.1710
6.78           -2.1704
6.79           -2.1696
6.81           -2.1688
6.82           -2.1679
6.84           -2.1669
6.85           -2.1658
6.87           -2.1647
6.88           -2.1634
6.90           -2.1620
6.91           -2.1606
6.93           -2.1591
6.94           -2.1575
6.96           -2.1558
6.97           -2.1540
6.99           -2.1521
7.00           -2.1502
7.02           -2.1481
7.03           -2.1460
7.05           -2.1438
7.06           -2.1415
7.08           -2.1392
7.09           -2.1368
7.11           -2.1343
7.12           -2.1317
7.14           -2.1290
7.15           -2.1263
7.17           -2.1235
7.18           -2.1207
7.20           -2.1177
7.21           -2.1148
7.23           -2.1117
7.24           -2.1086
7.26           -2.1054
7.27           -2.1022
7.29           -2.0989
7.30           -2.0955
7.32           -2.0921
7.33           -2.0886
7.35           -2.0851
7.36           -2.0816
7.38           -2.0780
7.39           -2.0743
7.41           -2.0706
7.42           -2.0669
7.44           -2.0631
7.45           -2.0593
7.47           -2.0555
7.48           -2.0516
7.50           -2.0477
7.51           -2.0438
7.53           -2.0398
7.54           -2.0358
7.56           -2.0318
7.57           -2.0278
7.59           -2.0238
7.60           -2.0197
7.62           -2.0156
7.63           -2.0115
7.65           -2.0074
7.66           -2.0033
7.68           -1.9992
7.69           -1.9951
7.71           -1.9910
7.72           -1.9869
7.74           -1.9828
7.75           -1.9787
7.77           -1.9746
7.78           -1.9706
7.80           -1.9665
7.81           -1.9624
7.83           -1.9584
7.84           -1.9544
7.86           -1.9504
7.87           -1.9465
7.89           -1.9425
7.90           -1.9386
7.92           -1.9347
7.93           -1.9309
7.95           -1.9271
7.96           -1.9233
7.98           -1.9196
7.99           -1.9159
8.01           -1.9123
8.02           -1.9087
8.04           -1.9051
8.05           -1.9016
8.07           -1.8981
8.08           -1.8947
8.10           -1.8914
8.11           -1.8881
8.13           -1.8849
8.14           -1.8817
8.16           -1.8786
8.17           -1.8756
8.19           -1.8726
8.20           -1.8697
8.22           -1.8668
8.23           -1.8641
8.25           -1.8614
8.26           -1.8588
8.28           -1.8562
8.29           -1.8537
8.31           -1.8513
8.32           -1.8490
8.34           -1.8468
8.35           -1.8446
8.37           -1.8426
8.38           -1.8406
8.40           -1.8387
8.41           -1.8369
8.43           -1.8352
8.44           -1.8335
8.46           -1.8320
8.47           -1.8305
8.49           -1.8292
8.50           -1.8279
8.52           -1.8267
8.53           -1.8257
8.55           -1.8247
8.56           -1.8238
8.58           -1.8230
8.59           -1.8223
8.61           -1.8217
8.62           -1.8212
8.64           -1.8208
8.65           -1.8204
8.67           -1.8202
8.68           -1.8201
8.70           -1.8201
8.71           -1.8202
8.73           -1.8204
8.74           -1.8206
8.76           -1.8210
8.77           -1.8215
8.79           -1.8220
8.80           -1.8227
8.82           -1.8235
8.83           -1.8243
8.85           -1.8253
8.86           -1.8263
8.88           -1.8275
8.89           -1.8287
8.91           -1.8301
8.92           -1.8315
8.94           -1.8330
8.95           -1.8346
8.97           -1.8363
8.98           -1.8381
9.00           -1.8400
9.01           -1.8420
9.03           -1.8440
9.04           -1.8462
9.06           -1.8484
9.07           -1.8507
9.09           -1.8531
9.10           -1.8556
9.12           -1.8582
9.13           -1.8608
9.15           -1.8635
9.16           -1.8663
9.18           -1.8692
9.19           -1.8721
9.21           -1.8751
9.22           -1.8782
9.24           -1.8814
9.25           -1.8846
9.27           -1.8879
9.28           -1.8912
9.30           -1.8946
9.31           -1.8981
9.33           -1.9016
9.34           -1.9052
9.36           -1.9088
9.37           -1.9125
9.39           -1.9162
9.40           -1.9200
9.42           -1.9238
9.43           -1.9277
9.45           -1.9316
9.46           -1.9355
9.48           -1.9395
9.49           -1.9435
9.51           -1.9476
9.52           -1.9516
9.54           -1.9557
9.55           -1.9599
9.57           -1.9640
9.58           -1.9682
9.60           -1.9724
9.61           -1.9766
9.63           -1.9809
9.64           -1.9851
9.66           -1.9894
9.67           -1.9936
9.69           -1.9979
9.70           -2.0022
9.72           -2.0064
9.73           -2.0107
9.75           -2.0150
9.76           -2.0192
9.78           -2.0235
9.79           -2.0277
9.81           -2.0319
9.82           -2.0361
9.84           -2.0403
9.85           -2.0445
9.87           -2.0486
9.88           -2.0528
9.90           -2.0569
9.91           -2.0609
9.93           -2.0650
9.94           -2.0690
9.96           -2.0729
9.97           -2.0769
9.99           -2.0808
10.01          -2.0846
10.02          -2.0884
10.04          -2.0922
10.05          -2.0959
10.07          -2.0995
10.08          -2.1031
10.10          -2.1067
10.11          -2.1101
10.13          -2.1136
10.14          -2.1169
10.16          -2.1203
10.17          -2.1235
10.19          -2.1267
10.20          -2.1298
10.22          -2.1328
10.23          -2.1358
10.25          -2.1387
10.26          -2.1415
10.28          -2.1442
10.29          -2.1469
10.31          -2.1495
10.32          -2.1520
10.34          -2.1544
10.35          -2.1568
10.37          -2.1590
10.38          -2.1612
10.40          -2.1633
10.41          -2.1653
10.43          -2.1672
10.44          -2.1690
10.46          -2.1707
10.47          -2.1724
10.49          -2.1739
10.50          -2.1753
10.52          -2.1767
10.53          -2.1779
10.55          -2.1791
10.56          -2.1802
10.58          -2.1811
10.59          -2.1820
10.61          -2.1827
10.62          -2.1834
10.64          -2.1840
10.65          -2.1844
10.67          -2.1848
10.68          -2.1851
10.70          -2.1852
10.71          -2.1853
10.73          -2.1853
10.74          -2.1851
10.76          -2.1849
10.77          -2.1845
10.79          -2.1841
10.80          -2.1835
10.82          -2.1829
10.83          -2.1822
10.85          -2.1813
10.86          -2.1804
10.88          -2.1793
10.89          -2.1782
10.91          -2.1770
10.92          -2.1756
10.94          -2.1742
10.95          -2.1727
10.97          -2.1711
10.98          -2.1694
11.00          -2.1676
11.01          -2.1657
11.03          -2.1637
11.04          -2.1616
11.06          -2.1594
11.07          -2.1572
11.09          -2.1549
11.10          -2.1524
11.12          -2.1499
11.13          -2.1473
11.15          -2.1447
11.16          -2.1419
11.18          -2.1391
11.19          -2.1362
11.21          -2.1332
11.22          -2.1302
11.24          -2.1271
11.25          -2.1239
11.27          -2.1206
11.28          -2.1173
11.30          -2.1139
11.31          -2.1105
11.33          -2.1070
11.34          -2.1034
11.36          -2.0998
11.37          -2.0961
11.39          -2.0924
11.40          -2.0886
11.42          -2.0847
11.43          -2.0809
11.45          -2.0769
11.46          -2.0730
11.48          -2.0690
11.49          -2.0649
11.51          -2.0608
11.52          -2.0567
11.54          -2.0526
11.55          -2.0484
11.57          -2.0442
11.58          -2.0400
11.60          -2.0358
11.61          -2.0315
11.63          -2.0272
11.64          -2.0229
11.66          -2.0186
11.67          -2.0143
11.69          -2.0100
11.70          -2.0056
11.72          -2.0013
11.73          -1.9970
11.75          -1.9926
11.76          -1.9883
11.78          -1.9840
11.79          -1.9797
11.81          -1.9754
11.82          -1.9711
11.84          -1.9668
11.85          -1.9625
11.87          -1.9583
11.88          -1.9541
11.90          -1.9499
11.91          -1.9458
11.93          -1.9416
11.94          -1.9375
11.96          -1.9335
11.97          -1.9294
11.99          -1.9255
12.00          -1.9215
12.02          -1.9176
12.03          -1.9138
12.05          -1.9100
12.06          -1.9062
12.08          -1.9025
12.09          -1.8988
12.11          -1.8952
12.12          -1.8917
12.14          -1.8882
12.15          -1.8848
12.17          -1.8815
12.18          -1.8782
12.20          -1.8749
12.21          -1.8718
12.23          -1.8687
12.24          -1.8657
12.26          -1.8628
12.27          -1.8599
12.29          -1.8571
12.30          -1.8544
12.32          -1.8518
12.33          -1.8493
12.35          -1.8468
12.36          -1.8444
12.38          -1.8422
12.39          -1.8400
12.41          -1.8378
12.42          -1.8358
12.44          -1.8339
12.45          -1.8321
12.47          -1.8303
12.48          -1.8287
12.50          -1.8271
12.51          -1.8256
12.53          -1.8243
12.54          -1.8230
12.56          -1.8218
12.57          -1.8208
12.59          -1.8198
12.60          -1.8189
12.62          -1.8182
12.63          -1.8175
12.65          -1.8169
12.66          -1.8164
12.68          -1.8161
12.69          -1.8158
12.71          -1.8157
12.72          -1.8156
12.74          -1.8156
12.75          -1.8158
12.77          -1.8160
12.78          -1.8164
12.80          -1.8168
12.81          -1.8174
12.83          -1.8180
12.84          -1.8188
12.86          -1.8196
12.87          -1.8206
12.89          -1.8216
12.90          -1.8228
12.92          -1.8240
12.93          -1.8254
12.95          -1.8268
12.96          -1.8284
12.98          -1.8300
