   Wave #: 	9
Wave amplitude (m): 	1.962
Wave omega (rad/s): 	0.628318531
Time (s)     Heave (m)
0.01           -1.9993
0.03           -1.9980
0.04           -1.9961
0.06           -1.9936
0.07           -1.9905
0.09           -1.9869
0.10           -1.9827
0.12           -1.9781
0.14           -1.9729
0.15           -1.9673
0.17           -1.9612
0.18           -1.9548
0.20           -1.9479
0.21           -1.9406
0.23           -1.9330
0.24           -1.9250
0.26           -1.9167
0.27           -1.9081
0.29           -1.8991
0.30           -1.8899
0.32           -1.8805
0.33           -1.8708
0.35           -1.8608
0.36           -1.8506
0.38           -1.8402
0.39           -1.8297
0.41           -1.8189
0.42           -1.8080
0.44           -1.7970
0.45           -1.7858
0.47           -1.7744
0.48           -1.7630
0.50           -1.7515
0.51           -1.7398
0.53           -1.7281
0.54           -1.7163
0.56           -1.7045
0.57           -1.6926
0.59           -1.6807
0.60           -1.6687
0.62           -1.6568
0.63           -1.6448
0.65           -1.6328
0.66           -1.6208
0.68           -1.6089
0.69           -1.5969
0.71           -1.5850
0.72           -1.5732
0.74           -1.5614
0.75           -1.5496
0.77           -1.5379
0.78           -1.5262
0.80           -1.5147
0.81           -1.5032
0.83           -1.4918
0.84           -1.4805
0.86           -1.4692
0.87           -1.4581
0.89           -1.4471
0.90           -1.4362
0.92           -1.4254
0.93           -1.4148
0.95           -1.4042
0.96           -1.3938
0.98           -1.3835
0.99           -1.3734
1.01           -1.3634
1.02           -1.3535
1.04           -1.3438
1.05           -1.3342
1.07           -1.3248
1.08           -1.3156
1.10           -1.3065
1.11           -1.2975
1.12           -1.2887
1.14           -1.2801
1.15           -1.2717
1.17           -1.2634
1.18           -1.2553
1.20           -1.2474
1.21           -1.2396
1.23           -1.2320
1.24           -1.2246
1.26           -1.2174
1.27           -1.2103
1.29           -1.2035
1.30           -1.1968
1.32           -1.1903
1.33           -1.1840
1.35           -1.1779
1.36           -1.1719
1.38           -1.1662
1.39           -1.1606
1.41           -1.1552
1.42           -1.1500
1.44           -1.1450
1.45           -1.1402
1.47           -1.1356
1.48           -1.1311
1.50           -1.1269
1.51           -1.1228
1.53           -1.1189
1.54           -1.1152
1.56           -1.1117
1.57           -1.1084
1.59           -1.1053
1.60           -1.1023
1.62           -1.0996
1.63           -1.0970
1.65           -1.0946
1.66           -1.0924
1.68           -1.0904
1.69           -1.0885
1.71           -1.0869
1.72           -1.0854
1.74           -1.0841
1.75           -1.0830
1.77           -1.0821
1.78           -1.0813
1.80           -1.0807
1.81           -1.0803
1.83           -1.0801
1.84           -1.0801
1.86           -1.0802
1.87           -1.0805
1.89           -1.0810
1.90           -1.0816
1.92           -1.0824
1.93           -1.0834
1.95           -1.0845
1.96           -1.0858
1.98           -1.0873
1.99           -1.0889
2.01           -1.0907
2.02           -1.0927
2.04           -1.0948
2.05           -1.0971
2.07           -1.0996
2.08           -1.1022
2.10           -1.1049
2.11           -1.1078
2.13           -1.1109
2.14           -1.1141
2.16           -1.1174
2.17           -1.1210
2.19           -1.1246
2.20           -1.1284
2.22           -1.1324
2.23           -1.1365
2.25           -1.1407
2.26           -1.1451
2.28           -1.1496
2.29           -1.1542
2.31           -1.1590
2.32           -1.1640
2.34           -1.1690
2.35           -1.1742
2.37           -1.1795
2.38           -1.1850
2.40           -1.1906
2.41           -1.1963
2.43           -1.2021
2.44           -1.2081
2.46           -1.2142
2.47           -1.2204
2.49           -1.2268
2.50           -1.2332
2.52           -1.2398
2.53           -1.2465
2.55           -1.2533
2.56           -1.2602
2.58           -1.2672
2.59           -1.2744
2.61           -1.2816
2.62           -1.2890
2.64           -1.2965
2.65           -1.3040
2.67           -1.3117
2.69           -1.3195
2.70           -1.3274
2.72           -1.3354
2.73           -1.3435
2.75           -1.3517
2.76           -1.3600
2.78           -1.3683
2.79           -1.3768
2.81           -1.3854
2.82           -1.3940
2.84           -1.4028
2.85           -1.4116
2.87           -1.4206
2.88           -1.4296
2.90           -1.4387
2.91           -1.4479
2.93           -1.4571
2.94           -1.4665
2.96           -1.4759
2.97           -1.4854
2.99           -1.4950
3.00           -1.5047
3.02           -1.5144
3.03           -1.5242
3.05           -1.5341
3.06           -1.5441
3.08           -1.5541
3.09           -1.5642
3.11           -1.5744
3.12           -1.5846
3.14           -1.5949
3.15           -1.6053
3.17           -1.6157
3.18           -1.6262
3.20           -1.6367
3.21           -1.6473
3.23           -1.6580
3.24           -1.6687
3.26           -1.6794
3.27           -1.6903
3.29           -1.7011
3.30           -1.7120
3.32           -1.7230
3.33           -1.7340
3.35           -1.7451
3.36           -1.7562
3.38           -1.7674
3.39           -1.7786
3.41           -1.7898
3.42           -1.8011
3.44           -1.8124
3.45           -1.8238
3.47           -1.8352
3.48           -1.8466
3.50           -1.8581
3.51           -1.8696
3.53           -1.8811
3.54           -1.8927
3.56           -1.9043
3.57           -1.9159
3.59           -1.9275
3.60           -1.9392
3.62           -1.9509
3.63           -1.9626
3.65           -1.9744
3.66           -1.9861
3.68           -1.9979
3.69           -2.0097
3.71           -2.0215
3.72           -2.0333
3.74           -2.0452
3.75           -2.0570
3.77           -2.0689
3.78           -2.0808
3.80           -2.0927
3.81           -2.1046
3.83           -2.1165
3.84           -2.1284
3.86           -2.1403
3.87           -2.1522
3.89           -2.1641
3.90           -2.1760
3.92           -2.1880
3.93           -2.1999
3.95           -2.2118
3.96           -2.2237
3.98           -2.2356
3.99           -2.2475
4.01           -2.2594
4.02           -2.2713
4.04           -2.2831
4.05           -2.2950
4.07           -2.3068
4.08           -2.3186
4.10           -2.3304
4.11           -2.3422
4.13           -2.3540
4.14           -2.3658
4.16           -2.3775
4.17           -2.3892
4.19           -2.4009
4.20           -2.4126
4.22           -2.4242
4.23           -2.4358
4.25           -2.4474
4.26           -2.4590
4.28           -2.4705
4.29           -2.4820
4.31           -2.4935
4.32           -2.5049
4.34           -2.5163
4.35           -2.5277
4.37           -2.5390
4.38           -2.5503
4.40           -2.5616
4.41           -2.5728
4.43           -2.5839
4.44           -2.5951
4.46           -2.6061
4.47           -2.6172
4.49           -2.6282
4.50           -2.6391
4.51           -2.6500
4.53           -2.6609
4.54           -2.6717
4.56           -2.6824
4.57           -2.6931
4.59           -2.7037
4.60           -2.7143
4.62           -2.7248
4.63           -2.7353
4.65           -2.7457
4.66           -2.7561
4.68           -2.7664
4.69           -2.7766
4.71           -2.7868
4.72           -2.7969
4.74           -2.8069
4.75           -2.8169
4.77           -2.8268
4.78           -2.8367
4.80           -2.8465
4.81           -2.8562
4.83           -2.8658
4.84           -2.8754
4.86           -2.8849
4.87           -2.8943
4.89           -2.9037
4.90           -2.9129
4.92           -2.9221
4.93           -2.9312
4.95           -2.9403
4.96           -2.9493
4.98           -2.9581
4.99           -2.9670
5.01           -2.9757
5.02           -2.9843
5.04           -2.9929
5.05           -3.0014
5.07           -3.0098
5.08           -3.0181
5.10           -3.0263
5.11           -3.0344
5.13           -3.0425
5.14           -3.0504
5.16           -3.0583
5.17           -3.0661
5.19           -3.0737
5.20           -3.0813
5.22           -3.0888
5.23           -3.0962
5.25           -3.1036
5.26           -3.1108
5.28           -3.1179
5.29           -3.1249
5.31           -3.1319
5.32           -3.1387
5.34           -3.1454
5.35           -3.1521
5.37           -3.1586
5.38           -3.1650
5.40           -3.1714
5.41           -3.1776
5.43           -3.1837
5.44           -3.1897
5.46           -3.1957
5.47           -3.2015
5.49           -3.2072
5.50           -3.2128
5.52           -3.2183
5.53           -3.2237
5.55           -3.2290
5.56           -3.2342
5.58           -3.2392
5.59           -3.2442
5.61           -3.2490
5.62           -3.2538
5.64           -3.2584
5.65           -3.2629
5.67           -3.2674
5.68           -3.2717
5.70           -3.2758
5.71           -3.2799
5.73           -3.2839
5.74           -3.2877
5.76           -3.2915
5.77           -3.2951
5.79           -3.2986
5.80           -3.3020
5.82           -3.3053
5.83           -3.3084
5.85           -3.3115
5.86           -3.3144
5.88           -3.3172
5.89           -3.3199
5.91           -3.3225
5.92           -3.3250
5.94           -3.3273
5.95           -3.3295
5.97           -3.3317
5.98           -3.3336
6.00           -3.3355
6.01           -3.3373
6.03           -3.3389
6.04           -3.3404
6.06           -3.3418
6.07           -3.3431
6.09           -3.3443
6.10           -3.3453
6.12           -3.3462
6.13           -3.3470
6.15           -3.3477
6.16           -3.3483
6.18           -3.3487
6.19           -3.3490
6.21           -3.3492
6.22           -3.3493
6.24           -3.3493
6.25           -3.3491
6.27           -3.3488
6.28           -3.3484
6.30           -3.3479
6.31           -3.3472
6.33           -3.3465
6.34           -3.3456
6.36           -3.3446
6.37           -3.3435
6.39           -3.3422
6.40           -3.3409
6.42           -3.3394
6.43           -3.3378
6.45           -3.3360
6.46           -3.3342
6.48           -3.3322
6.49           -3.3302
6.51           -3.3280
6.52           -3.3256
6.54           -3.3232
6.55           -3.3206
6.57           -3.3180
6.58           -3.3152
6.60           -3.3123
6.61           -3.3092
6.63           -3.3061
6.64           -3.3028
6.66           -3.2994
6.67           -3.2959
6.69           -3.2923
6.70           -3.2886
6.72           -3.2847
6.73           -3.2808
6.75           -3.2767
6.76           -3.2725
6.78           -3.2682
6.79           -3.2638
6.81           -3.2593
6.82           -3.2546
6.84           -3.2499
6.85           -3.2450
6.87           -3.2400
6.88           -3.2349
6.90           -3.2297
6.91           -3.2244
6.93           -3.2190
6.94           -3.2135
6.96           -3.2078
6.97           -3.2021
6.99           -3.1962
7.00           -3.1902
7.02           -3.1842
7.03           -3.1780
7.05           -3.1717
7.06           -3.1653
7.08           -3.1588
7.09           -3.1522
7.11           -3.1455
7.12           -3.1387
7.14           -3.1318
7.15           -3.1248
7.17           -3.1177
7.18           -3.1105
7.20           -3.1032
7.21           -3.0957
7.23           -3.0882
7.24           -3.0806
7.26           -3.0729
7.27           -3.0651
7.29           -3.0572
7.30           -3.0492
7.32           -3.0411
7.33           -3.0330
7.35           -3.0247
7.36           -3.0163
7.38           -3.0079
7.39           -2.9993
7.41           -2.9907
7.42           -2.9819
7.44           -2.9731
7.45           -2.9642
7.47           -2.9552
7.48           -2.9462
7.50           -2.9370
7.51           -2.9278
7.53           -2.9184
7.54           -2.9090
7.56           -2.8995
7.57           -2.8899
7.59           -2.8803
7.60           -2.8706
7.62           -2.8607
7.63           -2.8508
7.65           -2.8409
7.66           -2.8308
7.68           -2.8207
7.69           -2.8105
7.71           -2.8003
7.72           -2.7899
7.74           -2.7795
7.75           -2.7690
7.77           -2.7585
7.78           -2.7479
7.80           -2.7372
7.81           -2.7264
7.83           -2.7156
7.84           -2.7047
7.86           -2.6938
7.87           -2.6828
7.89           -2.6717
7.90           -2.6606
7.92           -2.6494
7.93           -2.6381
7.95           -2.6268
7.96           -2.6155
7.98           -2.6040
7.99           -2.5926
8.01           -2.5810
8.02           -2.5695
8.04           -2.5578
8.05           -2.5461
8.07           -2.5344
8.08           -2.5226
8.10           -2.5108
8.11           -2.4989
8.13           -2.4870
8.14           -2.4750
8.16           -2.4630
8.17           -2.4510
8.19           -2.4389
8.20           -2.4268
8.22           -2.4146
8.23           -2.4024
8.25           -2.3901
8.26           -2.3779
8.28           -2.3656
8.29           -2.3532
8.31           -2.3408
8.32           -2.3284
8.34           -2.3160
8.35           -2.3035
8.37           -2.2910
8.38           -2.2785
8.40           -2.2659
8.41           -2.2534
8.43           -2.2408
8.44           -2.2282
8.46           -2.2155
8.47           -2.2029
8.49           -2.1902
8.50           -2.1775
8.52           -2.1648
8.53           -2.1520
8.55           -2.1393
8.56           -2.1266
8.58           -2.1138
8.59           -2.1010
8.61           -2.0882
8.62           -2.0754
8.64           -2.0626
8.65           -2.0498
8.67           -2.0370
8.68           -2.0242
8.70           -2.0114
8.71           -1.9985
8.73           -1.9857
8.74           -1.9729
8.76           -1.9601
8.77           -1.9472
8.79           -1.9344
8.80           -1.9216
8.82           -1.9088
8.83           -1.8960
8.85           -1.8832
8.86           -1.8705
8.88           -1.8577
8.89           -1.8449
8.91           -1.8322
8.92           -1.8195
8.94           -1.8068
8.95           -1.7941
8.97           -1.7814
8.98           -1.7687
9.00           -1.7561
9.01           -1.7435
9.03           -1.7309
9.04           -1.7183
9.06           -1.7058
9.07           -1.6933
9.09           -1.6808
9.10           -1.6683
9.12           -1.6559
9.13           -1.6435
9.15           -1.6311
9.16           -1.6187
9.18           -1.6064
9.19           -1.5941
9.21           -1.5819
9.22           -1.5697
9.24           -1.5575
9.25           -1.5454
9.27           -1.5333
9.28           -1.5213
9.30           -1.5093
9.31           -1.4973
9.33           -1.4854
9.34           -1.4735
9.36           -1.4617
9.37           -1.4499
9.39           -1.4382
9.40           -1.4265
9.42           -1.4149
9.43           -1.4033
9.45           -1.3918
9.46           -1.3803
9.48           -1.3689
9.49           -1.3576
9.51           -1.3463
9.52           -1.3350
9.54           -1.3238
9.55           -1.3127
9.57           -1.3016
9.58           -1.2906
9.60           -1.2797
9.61           -1.2688
9.63           -1.2580
9.64           -1.2473
9.66           -1.2366
9.67           -1.2260
9.69           -1.2154
9.70           -1.2050
9.72           -1.1946
9.73           -1.1842
9.75           -1.1740
9.76           -1.1638
9.78           -1.1537
9.79           -1.1436
9.81           -1.1337
9.82           -1.1238
9.84           -1.1140
9.85           -1.1042
9.87           -1.0946
9.88           -1.0850
9.90           -1.0755
9.91           -1.0661
9.93           -1.0568
9.94           -1.0476
9.96           -1.0384
9.97           -1.0293
9.99           -1.0204
10.01          -1.0115
10.02          -1.0026
10.04          -0.9939
10.05          -0.9853
10.07          -0.9768
10.08          -0.9683
10.10          -0.9599
10.11          -0.9517
10.13          -0.9435
10.14          -0.9354
10.16          -0.9274
10.17          -0.9195
10.19          -0.9118
10.20          -0.9041
10.22          -0.8965
10.23          -0.8889
10.25          -0.8815
10.26          -0.8742
10.28          -0.8670
10.29          -0.8599
10.31          -0.8529
10.32          -0.8460
10.34          -0.8392
10.35          -0.8325
10.37          -0.8259
10.38          -0.8194
10.40          -0.8131
10.41          -0.8068
10.43          -0.8006
10.44          -0.7946
10.46          -0.7886
10.47          -0.7827
10.49          -0.7770
10.50          -0.7714
10.52          -0.7658
10.53          -0.7604
10.55          -0.7551
10.56          -0.7499
10.58          -0.7448
10.59          -0.7399
10.61          -0.7350
10.62          -0.7303
10.64          -0.7256
10.65          -0.7211
10.67          -0.7167
10.68          -0.7124
10.70          -0.7082
10.71          -0.7042
10.73          -0.7002
10.74          -0.6964
10.76          -0.6927
10.77          -0.6891
10.79          -0.6856
10.80          -0.6822
10.82          -0.6789
10.83          -0.6758
10.85          -0.6728
10.86          -0.6699
10.88          -0.6671
10.89          -0.6645
10.91          -0.6619
10.92          -0.6595
10.94          -0.6572
10.95          -0.6550
10.97          -0.6529
10.98          -0.6510
11.00          -0.6491
11.01          -0.6474
11.03          -0.6459
11.04          -0.6444
11.06          -0.6430
11.07          -0.6418
11.09          -0.6407
11.10          -0.6397
11.12          -0.6389
11.13          -0.6381
11.15          -0.6375
11.16          -0.6370
11.18          -0.6366
11.19          -0.6364
11.21          -0.6362
11.22          -0.6362
11.24          -0.6363
11.25          -0.6365
11.27          -0.6369
11.28          -0.6374
11.30          -0.6380
11.31          -0.6387
11.33          -0.6395
11.34          -0.6405
11.36          -0.6415
11.37          -0.6427
11.39          -0.6440
11.40          -0.6455
11.42          -0.6470
11.43          -0.6487
11.45          -0.6505
11.46          -0.6524
11.48          -0.6545
11.49          -0.6566
11.51          -0.6589
11.52          -0.6613
11.54          -0.6638
11.55          -0.6664
11.57          -0.6692
11.58          -0.6721
11.60          -0.6751
11.61          -0.6782
11.63          -0.6814
11.64          -0.6847
11.66          -0.6882
11.67          -0.6918
11.69          -0.6954
11.70          -0.6993
11.72          -0.7032
11.73          -0.7072
11.75          -0.7114
11.76          -0.7156
11.78          -0.7200
11.79          -0.7245
11.81          -0.7291
11.82          -0.7338
11.84          -0.7387
11.85          -0.7436
11.87          -0.7487
11.88          -0.7539
11.90          -0.7591
11.91          -0.7645
11.93          -0.7700
11.94          -0.7756
11.96          -0.7814
11.97          -0.7872
11.99          -0.7931
12.00          -0.7992
12.02          -0.8053
12.03          -0.8116
12.05          -0.8179
12.06          -0.8244
12.08          -0.8310
12.09          -0.8376
12.11          -0.8444
12.12          -0.8513
12.14          -0.8583
12.15          -0.8654
12.17          -0.8726
12.18          -0.8798
12.20          -0.8872
12.21          -0.8947
12.23          -0.9023
12.24          -0.9100
12.26          -0.9178
12.27          -0.9256
12.29          -0.9336
12.30          -0.9417
12.32          -0.9498
12.33          -0.9581
12.35          -0.9664
12.36          -0.9749
12.38          -0.9834
12.39          -0.9920
12.41          -1.0007
12.42          -1.0095
12.44          -1.0184
12.45          -1.0274
12.47          -1.0364
12.48          -1.0456
12.50          -1.0548
12.51          -1.0641
12.53          -1.0735
12.54          -1.0830
12.56          -1.0925
12.57          -1.1022
12.59          -1.1119
12.60          -1.1217
12.62          -1.1316
12.63          -1.1415
12.65          -1.1516
12.66          -1.1617
12.68          -1.1719
12.69          -1.1821
12.71          -1.1925
12.72          -1.2029
12.74          -1.2133
12.75          -1.2239
12.77          -1.2345
12.78          -1.2452
12.80          -1.2559
12.81          -1.2667
12.83          -1.2776
12.84          -1.2885
12.86          -1.2995
12.87          -1.3106
12.89          -1.3217
12.90          -1.3329
12.92          -1.3442
12.93          -1.3555
12.95          -1.3668
12.96          -1.3783
12.98          -1.3897
