Time (s)     Heave (m)
0.01           -1.9999
0.03           -1.9998
0.04           -1.9995
0.06           -1.9992
0.07           -1.9988
0.09           -1.9983
0.10           -1.9978
0.12           -1.9972
0.14           -1.9965
0.15           -1.9957
0.17           -1.9949
0.18           -1.9940
0.20           -1.9931
0.21           -1.9921
0.23           -1.9910
0.24           -1.9898
0.26           -1.9886
0.27           -1.9874
0.29           -1.9860
0.30           -1.9847
0.32           -1.9833
0.33           -1.9818
0.35           -1.9803
0.36           -1.9787
0.38           -1.9771
0.39           -1.9754
0.41           -1.9737
0.42           -1.9720
0.44           -1.9702
0.45           -1.9684
0.47           -1.9666
0.48           -1.9647
0.50           -1.9628
0.51           -1.9609
0.53           -1.9589
0.54           -1.9569
0.56           -1.9550
0.57           -1.9529
0.59           -1.9509
0.60           -1.9489
0.62           -1.9468
0.63           -1.9448
0.65           -1.9427
0.66           -1.9406
0.68           -1.9385
0.69           -1.9365
0.71           -1.9344
0.72           -1.9323
0.74           -1.9302
0.75           -1.9282
0.77           -1.9261
0.78           -1.9241
0.80           -1.9221
0.81           -1.9201
0.83           -1.9181
0.84           -1.9162
0.86           -1.9142
0.87           -1.9123
0.89           -1.9104
0.90           -1.9086
0.92           -1.9068
0.93           -1.9050
0.95           -1.9032
0.96           -1.9015
0.98           -1.8999
0.99           -1.8983
1.01           -1.8967
1.02           -1.8952
1.04           -1.8937
1.05           -1.8923
1.07           -1.8909
1.08           -1.8896
1.10           -1.8883
1.11           -1.8871
1.12           -1.8860
1.14           -1.8849
1.15           -1.8839
1.17           -1.8830
1.18           -1.8821
1.20           -1.8813
1.21           -1.8805
1.23           -1.8799
1.24           -1.8793
1.26           -1.8788
1.27           -1.8784
1.29           -1.8780
1.30           -1.8778
1.32           -1.8776
1.33           -1.8775
1.35           -1.8775
1.36           -1.8775
1.38           -1.8777
1.39           -1.8779
1.41           -1.8783
1.42           -1.8787
1.44           -1.8792
1.45           -1.8799
1.47           -1.8806
1.48           -1.8814
1.50           -1.8823
1.51           -1.8833
1.53           -1.8844
1.54           -1.8856
1.56           -1.8869
1.57           -1.8883
1.59           -1.8898
1.60           -1.8914
1.62           -1.8931
1.63           -1.8949
1.65           -1.8969
1.66           -1.8989
1.68           -1.9010
1.69           -1.9032
1.71           -1.9056
1.72           -1.9080
1.74           -1.9106
1.75           -1.9132
1.77           -1.9160
1.78           -1.9188
1.80           -1.9218
1.81           -1.9249
1.83           -1.9281
1.84           -1.9313
1.86           -1.9347
1.87           -1.9382
1.89           -1.9418
1.90           -1.9455
1.92           -1.9493
1.93           -1.9532
1.95           -1.9572
1.96           -1.9613
1.98           -1.9655
1.99           -1.9698
2.01           -1.9743
2.02           -1.9788
2.04           -1.9834
2.05           -1.9881
2.07           -1.9928
2.08           -1.9977
2.10           -2.0027
2.11           -2.0078
2.13           -2.0130
2.14           -2.0182
2.16           -2.0236
2.17           -2.0290
2.19           -2.0345
2.20           -2.0401
2.22           -2.0458
2.23           -2.0515
2.25           -2.0574
2.26           -2.0633
2.28           -2.0693
2.29           -2.0754
2.31           -2.0815
2.32           -2.0877
2.34           -2.0940
2.35           -2.1004
2.37           -2.1068
2.38           -2.1133
2.40           -2.1198
2.41           -2.1264
2.43           -2.1331
2.44           -2.1398
2.46           -2.1466
2.47           -2.1534
2.49           -2.1603
2.50           -2.1672
2.52           -2.1741
2.53           -2.1811
2.55           -2.1882
2.56           -2.1953
2.58           -2.2024
2.59           -2.2096
2.61           -2.2167
2.62           -2.2240
2.64           -2.2312
2.65           -2.2385
2.67           -2.2457
2.69           -2.2531
2.70           -2.2604
2.72           -2.2677
2.73           -2.2751
2.75           -2.2824
2.76           -2.2898
2.78           -2.2971
2.79           -2.3045
2.81           -2.3119
2.82           -2.3192
2.84           -2.3266
2.85           -2.3339
2.87           -2.3413
2.88           -2.3486
2.90           -2.3559
2.91           -2.3632
2.93           -2.3704
2.94           -2.3777
2.96           -2.3849
2.97           -2.3920
2.99           -2.3992
3.00           -2.4063
3.02           -2.4134
3.03           -2.4204
3.05           -2.4274
3.06           -2.4343
3.08           -2.4412
3.09           -2.4480
3.11           -2.4548
3.12           -2.4615
3.14           -2.4682
3.15           -2.4748
3.17           -2.4814
3.18           -2.4878
3.20           -2.4942
3.21           -2.5006
3.23           -2.5068
3.24           -2.5130
3.26           -2.5191
3.27           -2.5251
3.29           -2.5311
3.30           -2.5369
3.32           -2.5427
3.33           -2.5484
3.35           -2.5540
3.36           -2.5595
3.38           -2.5649
3.39           -2.5701
3.41           -2.5753
3.42           -2.5804
3.44           -2.5854
3.45           -2.5903
3.47           -2.5950
3.48           -2.5997
3.50           -2.6042
3.51           -2.6087
3.53           -2.6130
3.54           -2.6172
3.56           -2.6212
3.57           -2.6252
3.59           -2.6290
3.60           -2.6327
3.62           -2.6363
3.63           -2.6397
3.65           -2.6430
3.66           -2.6462
3.68           -2.6492
3.69           -2.6521
3.71           -2.6549
3.72           -2.6575
3.74           -2.6600
3.75           -2.6624
3.77           -2.6646
3.78           -2.6667
3.80           -2.6686
3.81           -2.6704
3.83           -2.6720
3.84           -2.6735
3.86           -2.6749
3.87           -2.6761
3.89           -2.6771
3.90           -2.6780
3.92           -2.6788
3.93           -2.6794
3.95           -2.6798
3.96           -2.6801
3.98           -2.6802
3.99           -2.6802
4.01           -2.6801
4.02           -2.6797
4.04           -2.6793
4.05           -2.6786
4.07           -2.6779
4.08           -2.6769
4.10           -2.6758
4.11           -2.6746
4.13           -2.6732
4.14           -2.6716
4.16           -2.6699
4.17           -2.6681
4.19           -2.6661
4.20           -2.6639
4.22           -2.6616
4.23           -2.6591
4.25           -2.6565
4.26           -2.6537
4.28           -2.6508
4.29           -2.6477
4.31           -2.6445
4.32           -2.6411
4.34           -2.6376
4.35           -2.6339
4.37           -2.6301
4.38           -2.6262
4.40           -2.6220
4.41           -2.6178
4.43           -2.6134
4.44           -2.6089
4.46           -2.6042
4.47           -2.5994
4.49           -2.5944
4.50           -2.5894
4.51           -2.5841
4.53           -2.5788
4.54           -2.5733
4.56           -2.5677
4.57           -2.5619
4.59           -2.5561
4.60           -2.5501
4.62           -2.5439
4.63           -2.5377
4.65           -2.5313
4.66           -2.5248
4.68           -2.5182
4.69           -2.5115
4.71           -2.5047
4.72           -2.4977
4.74           -2.4907
4.75           -2.4835
4.77           -2.4763
4.78           -2.4689
4.80           -2.4614
4.81           -2.4538
4.83           -2.4462
4.84           -2.4384
4.86           -2.4306
4.87           -2.4226
4.89           -2.4146
4.90           -2.4065
4.92           -2.3983
4.93           -2.3900
4.95           -2.3816
4.96           -2.3732
4.98           -2.3647
4.99           -2.3561
5.01           -2.3475
5.02           -2.3388
5.04           -2.3300
5.05           -2.3211
5.07           -2.3122
5.08           -2.3033
5.10           -2.2943
5.11           -2.2852
5.13           -2.2761
5.14           -2.2670
5.16           -2.2578
5.17           -2.2486
5.19           -2.2393
5.20           -2.2300
5.22           -2.2207
5.23           -2.2113
5.25           -2.2019
5.26           -2.1925
5.28           -2.1831
5.29           -2.1737
5.31           -2.1642
5.32           -2.1547
5.34           -2.1453
5.35           -2.1358
5.37           -2.1263
5.38           -2.1168
5.40           -2.1073
5.41           -2.0978
5.43           -2.0884
5.44           -2.0789
5.46           -2.0695
5.47           -2.0600
5.49           -2.0506
5.50           -2.0412
5.52           -2.0319
5.53           -2.0225
5.55           -2.0132
5.56           -2.0039
5.58           -1.9947
5.59           -1.9855
5.61           -1.9763
5.62           -1.9672
5.64           -1.9582
5.65           -1.9491
5.67           -1.9402
5.68           -1.9313
5.70           -1.9224
5.71           -1.9136
5.73           -1.9049
5.74           -1.8962
5.76           -1.8876
5.77           -1.8791
5.79           -1.8706
5.80           -1.8622
5.82           -1.8539
5.83           -1.8457
5.85           -1.8376
5.86           -1.8295
5.88           -1.8215
5.89           -1.8137
5.91           -1.8059
5.92           -1.7982
5.94           -1.7906
5.95           -1.7830
5.97           -1.7756
5.98           -1.7683
6.00           -1.7611
6.01           -1.7540
6.03           -1.7470
6.04           -1.7402
6.06           -1.7334
6.07           -1.7268
6.09           -1.7202
6.10           -1.7138
6.12           -1.7075
6.13           -1.7013
6.15           -1.6953
6.16           -1.6893
6.18           -1.6835
6.19           -1.6778
6.21           -1.6723
6.22           -1.6669
6.24           -1.6616
6.25           -1.6564
6.27           -1.6514
6.28           -1.6465
6.30           -1.6418
6.31           -1.6371
6.33           -1.6327
6.34           -1.6283
6.36           -1.6241
6.37           -1.6201
6.39           -1.6162
6.40           -1.6124
6.42           -1.6088
6.43           -1.6053
6.45           -1.6020
6.46           -1.5988
6.48           -1.5958
6.49           -1.5929
6.51           -1.5902
6.52           -1.5876
6.54           -1.5851
6.55           -1.5828
6.57           -1.5807
6.58           -1.5787
6.60           -1.5769
6.61           -1.5752
6.63           -1.5736
6.64           -1.5722
6.66           -1.5710
6.67           -1.5699
6.69           -1.5690
6.70           -1.5682
6.72           -1.5676
6.73           -1.5671
6.75           -1.5667
6.76           -1.5665
6.78           -1.5665
6.79           -1.5666
6.81           -1.5669
6.82           -1.5673
6.84           -1.5678
6.85           -1.5685
6.87           -1.5694
6.88           -1.5704
6.90           -1.5715
6.91           -1.5728
6.93           -1.5742
6.94           -1.5757
6.96           -1.5774
6.97           -1.5793
6.99           -1.5812
7.00           -1.5833
7.02           -1.5856
7.03           -1.5880
7.05           -1.5905
7.06           -1.5931
7.08           -1.5959
7.09           -1.5988
7.11           -1.6018
7.12           -1.6050
7.14           -1.6082
7.15           -1.6116
7.17           -1.6152
7.18           -1.6188
7.20           -1.6225
7.21           -1.6264
7.23           -1.6304
7.24           -1.6345
7.26           -1.6387
7.27           -1.6430
7.29           -1.6474
7.30           -1.6520
7.32           -1.6566
7.33           -1.6613
7.35           -1.6662
7.36           -1.6711
7.38           -1.6761
7.39           -1.6812
7.41           -1.6864
7.42           -1.6917
7.44           -1.6971
7.45           -1.7025
7.47           -1.7081
7.48           -1.7137
7.50           -1.7194
7.51           -1.7251
7.53           -1.7310
7.54           -1.7369
7.56           -1.7428
7.57           -1.7489
7.59           -1.7550
7.60           -1.7611
7.62           -1.7673
7.63           -1.7736
7.65           -1.7799
7.66           -1.7863
7.68           -1.7927
7.69           -1.7992
7.71           -1.8057
7.72           -1.8123
7.74           -1.8188
7.75           -1.8255
7.77           -1.8321
7.78           -1.8388
7.80           -1.8455
7.81           -1.8522
7.83           -1.8590
7.84           -1.8658
7.86           -1.8725
7.87           -1.8793
7.89           -1.8862
7.90           -1.8930
7.92           -1.8998
7.93           -1.9067
7.95           -1.9135
7.96           -1.9203
7.98           -1.9272
7.99           -1.9340
8.01           -1.9408
8.02           -1.9476
8.04           -1.9544
8.05           -1.9612
8.07           -1.9680
8.08           -1.9747
8.10           -1.9814
8.11           -1.9881
8.13           -1.9948
8.14           -2.0015
8.16           -2.0081
8.17           -2.0146
8.19           -2.0212
8.20           -2.0277
8.22           -2.0341
8.23           -2.0406
8.25           -2.0469
8.26           -2.0532
8.28           -2.0595
8.29           -2.0657
8.31           -2.0719
8.32           -2.0780
8.34           -2.0841
8.35           -2.0901
8.37           -2.0960
8.38           -2.1019
8.40           -2.1077
8.41           -2.1134
8.43           -2.1191
8.44           -2.1247
8.46           -2.1302
8.47           -2.1357
8.49           -2.1411
8.50           -2.1464
8.52           -2.1516
8.53           -2.1567
8.55           -2.1618
8.56           -2.1668
8.58           -2.1717
8.59           -2.1765
8.61           -2.1812
8.62           -2.1858
8.64           -2.1904
8.65           -2.1948
8.67           -2.1992
8.68           -2.2035
8.70           -2.2076
8.71           -2.2117
8.73           -2.2157
8.74           -2.2196
8.76           -2.2233
8.77           -2.2270
8.79           -2.2306
8.80           -2.2341
8.82           -2.2375
8.83           -2.2408
8.85           -2.2439
8.86           -2.2470
8.88           -2.2500
8.89           -2.2528
8.91           -2.2556
8.92           -2.2583
8.94           -2.2608
8.95           -2.2633
8.97           -2.2656
8.98           -2.2678
9.00           -2.2699
9.01           -2.2720
9.03           -2.2739
9.04           -2.2757
9.06           -2.2773
9.07           -2.2789
9.09           -2.2804
9.10           -2.2818
9.12           -2.2830
9.13           -2.2842
9.15           -2.2852
9.16           -2.2862
9.18           -2.2870
9.19           -2.2877
9.21           -2.2884
9.22           -2.2889
9.24           -2.2893
9.25           -2.2896
9.27           -2.2898
9.28           -2.2899
9.30           -2.2899
9.31           -2.2898
9.33           -2.2896
9.34           -2.2893
9.36           -2.2889
9.37           -2.2884
9.39           -2.2878
9.40           -2.2871
9.42           -2.2863
9.43           -2.2854
9.45           -2.2844
9.46           -2.2833
9.48           -2.2821
9.49           -2.2809
9.51           -2.2795
9.52           -2.2780
9.54           -2.2765
9.55           -2.2749
9.57           -2.2732
9.58           -2.2714
9.60           -2.2695
9.61           -2.2675
9.63           -2.2655
9.64           -2.2633
9.66           -2.2611
9.67           -2.2588
9.69           -2.2564
9.70           -2.2540
9.72           -2.2515
9.73           -2.2489
9.75           -2.2462
9.76           -2.2435
9.78           -2.2407
9.79           -2.2378
9.81           -2.2349
9.82           -2.2319
9.84           -2.2288
9.85           -2.2257
9.87           -2.2225
9.88           -2.2192
9.90           -2.2159
9.91           -2.2125
9.93           -2.2091
9.94           -2.2057
9.96           -2.2021
9.97           -2.1986
9.99           -2.1949
10.01          -2.1913
10.02          -2.1875
10.04          -2.1838
10.05          -2.1800
10.07          -2.1761
10.08          -2.1722
10.10          -2.1683
10.11          -2.1643
10.13          -2.1603
10.14          -2.1563
10.16          -2.1522
10.17          -2.1481
10.19          -2.1440
10.20          -2.1398
10.22          -2.1357
10.23          -2.1314
10.25          -2.1272
10.26          -2.1230
10.28          -2.1187
10.29          -2.1144
10.31          -2.1101
10.32          -2.1057
10.34          -2.1014
10.35          -2.0970
10.37          -2.0926
10.38          -2.0882
10.40          -2.0838
10.41          -2.0794
10.43          -2.0750
10.44          -2.0705
10.46          -2.0661
10.47          -2.0617
10.49          -2.0572
10.50          -2.0528
10.52          -2.0483
10.53          -2.0439
10.55          -2.0394
10.56          -2.0350
10.58          -2.0306
10.59          -2.0261
10.61          -2.0217
10.62          -2.0173
10.64          -2.0128
10.65          -2.0084
10.67          -2.0040
10.68          -1.9996
10.70          -1.9953
10.71          -1.9909
10.73          -1.9865
10.74          -1.9822
10.76          -1.9779
10.77          -1.9736
10.79          -1.9693
10.80          -1.9650
10.82          -1.9607
10.83          -1.9565
10.85          -1.9523
10.86          -1.9481
10.88          -1.9439
10.89          -1.9397
10.91          -1.9356
10.92          -1.9315
10.94          -1.9274
10.95          -1.9233
10.97          -1.9192
10.98          -1.9152
11.00          -1.9112
11.01          -1.9072
11.03          -1.9033
11.04          -1.8994
11.06          -1.8955
11.07          -1.8916
11.09          -1.8878
11.10          -1.8840
11.12          -1.8802
11.13          -1.8764
11.15          -1.8727
11.16          -1.8690
11.18          -1.8653
11.19          -1.8617
11.21          -1.8580
11.22          -1.8545
11.24          -1.8509
11.25          -1.8474
11.27          -1.8439
11.28          -1.8404
11.30          -1.8370
11.31          -1.8336
11.33          -1.8302
11.34          -1.8268
11.36          -1.8235
11.37          -1.8202
11.39          -1.8170
11.40          -1.8138
11.42          -1.8106
11.43          -1.8074
11.45          -1.8043
11.46          -1.8011
11.48          -1.7981
11.49          -1.7950
11.51          -1.7920
11.52          -1.7890
11.54          -1.7861
11.55          -1.7831
11.57          -1.7802
11.58          -1.7774
11.60          -1.7745
11.61          -1.7717
11.63          -1.7689
11.64          -1.7662
11.66          -1.7634
11.67          -1.7607
11.69          -1.7581
11.70          -1.7554
11.72          -1.7528
11.73          -1.7502
11.75          -1.7477
11.76          -1.7451
11.78          -1.7426
11.79          -1.7401
11.81          -1.7377
11.82          -1.7353
11.84          -1.7328
11.85          -1.7305
11.87          -1.7281
11.88          -1.7258
11.90          -1.7235
11.91          -1.7212
11.93          -1.7189
11.94          -1.7167
11.96          -1.7145
11.97          -1.7123
11.99          -1.7102
12.00          -1.7080
12.02          -1.7059
12.03          -1.7038
12.05          -1.7018
12.06          -1.6997
12.08          -1.6977
12.09          -1.6957
12.11          -1.6937
12.12          -1.6918
12.14          -1.6899
12.15          -1.6879
12.17          -1.6861
12.18          -1.6842
12.20          -1.6823
12.21          -1.6805
12.23          -1.6787
12.24          -1.6769
12.26          -1.6752
12.27          -1.6734
12.29          -1.6717
12.30          -1.6700
12.32          -1.6684
12.33          -1.6667
12.35          -1.6651
12.36          -1.6635
12.38          -1.6619
12.39          -1.6603
12.41          -1.6588
12.42          -1.6572
12.44          -1.6557
12.45          -1.6542
12.47          -1.6528
12.48          -1.6513
12.50          -1.6499
12.51          -1.6485
12.53          -1.6471
12.54          -1.6458
12.56          -1.6444
12.57          -1.6431
12.59          -1.6418
12.60          -1.6406
12.62          -1.6393
12.63          -1.6381
12.65          -1.6369
12.66          -1.6357
12.68          -1.6346
12.69          -1.6334
12.71          -1.6323
12.72          -1.6313
12.74          -1.6302
12.75          -1.6292
12.77          -1.6281
12.78          -1.6272
12.80          -1.6262
12.81          -1.6253
12.83          -1.6243
12.84          -1.6235
12.86          -1.6226
12.87          -1.6218
12.89          -1.6210
12.90          -1.6202
12.92          -1.6194
12.93          -1.6187
12.95          -1.6180
12.96          -1.6173
12.98          -1.6167
12.99          -1.6161
13.01          -1.6155
13.02          -1.6149
