   Wave #: 	7
Wave amplitude (m): 	1.256
Wave omega (rad/s): 	0.785398163
Time (s)     Heave (m)
0.01           -1.9996
0.03           -1.9989
0.04           -1.9978
0.06           -1.9964
0.07           -1.9947
0.09           -1.9926
0.10           -1.9902
0.12           -1.9876
0.14           -1.9846
0.15           -1.9814
0.17           -1.9778
0.18           -1.9741
0.20           -1.9700
0.21           -1.9658
0.23           -1.9612
0.24           -1.9565
0.26           -1.9515
0.27           -1.9464
0.29           -1.9410
0.30           -1.9354
0.32           -1.9297
0.33           -1.9238
0.35           -1.9177
0.36           -1.9115
0.38           -1.9051
0.39           -1.8986
0.41           -1.8919
0.42           -1.8851
0.44           -1.8782
0.45           -1.8712
0.47           -1.8641
0.48           -1.8569
0.50           -1.8497
0.51           -1.8423
0.53           -1.8349
0.54           -1.8274
0.56           -1.8199
0.57           -1.8123
0.59           -1.8047
0.60           -1.7970
0.62           -1.7894
0.63           -1.7817
0.65           -1.7740
0.66           -1.7663
0.68           -1.7585
0.69           -1.7508
0.71           -1.7431
0.72           -1.7355
0.74           -1.7278
0.75           -1.7202
0.77           -1.7126
0.78           -1.7051
0.80           -1.6976
0.81           -1.6901
0.83           -1.6827
0.84           -1.6754
0.86           -1.6682
0.87           -1.6610
0.89           -1.6539
0.90           -1.6468
0.92           -1.6399
0.93           -1.6330
0.95           -1.6263
0.96           -1.6196
0.98           -1.6131
0.99           -1.6066
1.01           -1.6003
1.02           -1.5940
1.04           -1.5879
1.05           -1.5819
1.07           -1.5761
1.08           -1.5703
1.10           -1.5647
1.11           -1.5592
1.12           -1.5539
1.14           -1.5487
1.15           -1.5436
1.17           -1.5387
1.18           -1.5339
1.20           -1.5292
1.21           -1.5248
1.23           -1.5204
1.24           -1.5162
1.26           -1.5122
1.27           -1.5083
1.29           -1.5046
1.30           -1.5011
1.32           -1.4977
1.33           -1.4945
1.35           -1.4914
1.36           -1.4885
1.38           -1.4858
1.39           -1.4832
1.41           -1.4808
1.42           -1.4786
1.44           -1.4765
1.45           -1.4746
1.47           -1.4729
1.48           -1.4713
1.50           -1.4699
1.51           -1.4687
1.53           -1.4677
1.54           -1.4668
1.56           -1.4661
1.57           -1.4656
1.59           -1.4653
1.60           -1.4651
1.62           -1.4651
1.63           -1.4652
1.65           -1.4656
1.66           -1.4661
1.68           -1.4667
1.69           -1.4676
1.71           -1.4686
1.72           -1.4698
1.74           -1.4711
1.75           -1.4726
1.77           -1.4743
1.78           -1.4761
1.80           -1.4781
1.81           -1.4803
1.83           -1.4826
1.84           -1.4851
1.86           -1.4877
1.87           -1.4905
1.89           -1.4935
1.90           -1.4966
1.92           -1.4999
1.93           -1.5033
1.95           -1.5069
1.96           -1.5106
1.98           -1.5145
1.99           -1.5185
2.01           -1.5226
2.02           -1.5269
2.04           -1.5314
2.05           -1.5360
2.07           -1.5407
2.08           -1.5456
2.10           -1.5506
2.11           -1.5557
2.13           -1.5610
2.14           -1.5664
2.16           -1.5719
2.17           -1.5776
2.19           -1.5834
2.20           -1.5893
2.22           -1.5953
2.23           -1.6014
2.25           -1.6077
2.26           -1.6141
2.28           -1.6206
2.29           -1.6272
2.31           -1.6339
2.32           -1.6407
2.34           -1.6476
2.35           -1.6546
2.37           -1.6618
2.38           -1.6690
2.40           -1.6763
2.41           -1.6838
2.43           -1.6913
2.44           -1.6989
2.46           -1.7066
2.47           -1.7144
2.49           -1.7222
2.50           -1.7302
2.52           -1.7382
2.53           -1.7463
2.55           -1.7545
2.56           -1.7628
2.58           -1.7712
2.59           -1.7796
2.61           -1.7880
2.62           -1.7966
2.64           -1.8052
2.65           -1.8139
2.67           -1.8226
2.69           -1.8314
2.70           -1.8403
2.72           -1.8492
2.73           -1.8581
2.75           -1.8671
2.76           -1.8762
2.78           -1.8853
2.79           -1.8944
2.81           -1.9036
2.82           -1.9129
2.84           -1.9221
2.85           -1.9314
2.87           -1.9408
2.88           -1.9501
2.90           -1.9595
2.91           -1.9690
2.93           -1.9784
2.94           -1.9879
2.96           -1.9974
2.97           -2.0069
2.99           -2.0165
3.00           -2.0260
3.02           -2.0356
3.03           -2.0452
3.05           -2.0548
3.06           -2.0644
3.08           -2.0740
3.09           -2.0836
3.11           -2.0932
3.12           -2.1028
3.14           -2.1125
3.15           -2.1221
3.17           -2.1317
3.18           -2.1413
3.20           -2.1509
3.21           -2.1605
3.23           -2.1701
3.24           -2.1796
3.26           -2.1892
3.27           -2.1987
3.29           -2.2083
3.30           -2.2178
3.32           -2.2272
3.33           -2.2367
3.35           -2.2461
3.36           -2.2555
3.38           -2.2649
3.39           -2.2742
3.41           -2.2836
3.42           -2.2928
3.44           -2.3021
3.45           -2.3113
3.47           -2.3205
3.48           -2.3296
3.50           -2.3387
3.51           -2.3478
3.53           -2.3568
3.54           -2.3657
3.56           -2.3747
3.57           -2.3835
3.59           -2.3924
3.60           -2.4011
3.62           -2.4098
3.63           -2.4185
3.65           -2.4271
3.66           -2.4357
3.68           -2.4442
3.69           -2.4526
3.71           -2.4610
3.72           -2.4693
3.74           -2.4775
3.75           -2.4857
3.77           -2.4938
3.78           -2.5019
3.80           -2.5099
3.81           -2.5178
3.83           -2.5256
3.84           -2.5334
3.86           -2.5411
3.87           -2.5487
3.89           -2.5563
3.90           -2.5637
3.92           -2.5711
3.93           -2.5784
3.95           -2.5857
3.96           -2.5928
3.98           -2.5999
3.99           -2.6069
4.01           -2.6138
4.02           -2.6206
4.04           -2.6273
4.05           -2.6340
4.07           -2.6405
4.08           -2.6470
4.10           -2.6534
4.11           -2.6596
4.13           -2.6658
4.14           -2.6719
4.16           -2.6779
4.17           -2.6838
4.19           -2.6897
4.20           -2.6954
4.22           -2.7010
4.23           -2.7065
4.25           -2.7119
4.26           -2.7172
4.28           -2.7225
4.29           -2.7276
4.31           -2.7326
4.32           -2.7375
4.34           -2.7423
4.35           -2.7470
4.37           -2.7516
4.38           -2.7561
4.40           -2.7605
4.41           -2.7648
4.43           -2.7690
4.44           -2.7730
4.46           -2.7770
4.47           -2.7808
4.49           -2.7846
4.50           -2.7882
4.51           -2.7917
4.53           -2.7951
4.54           -2.7984
4.56           -2.8016
4.57           -2.8046
4.59           -2.8076
4.60           -2.8104
4.62           -2.8131
4.63           -2.8158
4.65           -2.8183
4.66           -2.8206
4.68           -2.8229
4.69           -2.8250
4.71           -2.8271
4.72           -2.8290
4.74           -2.8308
4.75           -2.8325
4.77           -2.8340
4.78           -2.8355
4.80           -2.8368
4.81           -2.8380
4.83           -2.8391
4.84           -2.8401
4.86           -2.8409
4.87           -2.8416
4.89           -2.8423
4.90           -2.8427
4.92           -2.8431
4.93           -2.8434
4.95           -2.8435
4.96           -2.8435
4.98           -2.8434
4.99           -2.8432
5.01           -2.8429
5.02           -2.8424
5.04           -2.8418
5.05           -2.8412
5.07           -2.8403
5.08           -2.8394
5.10           -2.8383
5.11           -2.8372
5.13           -2.8359
5.14           -2.8345
5.16           -2.8330
5.17           -2.8313
5.19           -2.8296
5.20           -2.8277
5.22           -2.8257
5.23           -2.8236
5.25           -2.8213
5.26           -2.8190
5.28           -2.8165
5.29           -2.8139
5.31           -2.8113
5.32           -2.8084
5.34           -2.8055
5.35           -2.8025
5.37           -2.7993
5.38           -2.7961
5.40           -2.7927
5.41           -2.7892
5.43           -2.7856
5.44           -2.7819
5.46           -2.7781
5.47           -2.7741
5.49           -2.7701
5.50           -2.7660
5.52           -2.7617
5.53           -2.7573
5.55           -2.7528
5.56           -2.7483
5.58           -2.7436
5.59           -2.7388
5.61           -2.7339
5.62           -2.7289
5.64           -2.7238
5.65           -2.7185
5.67           -2.7132
5.68           -2.7078
5.70           -2.7023
5.71           -2.6967
5.73           -2.6910
5.74           -2.6852
5.76           -2.6793
5.77           -2.6732
5.79           -2.6671
5.80           -2.6609
5.82           -2.6546
5.83           -2.6483
5.85           -2.6418
5.86           -2.6352
5.88           -2.6286
5.89           -2.6218
5.91           -2.6150
5.92           -2.6080
5.94           -2.6010
5.95           -2.5939
5.97           -2.5867
5.98           -2.5795
6.00           -2.5721
6.01           -2.5647
6.03           -2.5572
6.04           -2.5496
6.06           -2.5419
6.07           -2.5342
6.09           -2.5263
6.10           -2.5184
6.12           -2.5105
6.13           -2.5024
6.15           -2.4943
6.16           -2.4861
6.18           -2.4778
6.19           -2.4695
6.21           -2.4611
6.22           -2.4526
6.24           -2.4441
6.25           -2.4355
6.27           -2.4269
6.28           -2.4181
6.30           -2.4094
6.31           -2.4005
6.33           -2.3916
6.34           -2.3827
6.36           -2.3737
6.37           -2.3646
6.39           -2.3555
6.40           -2.3463
6.42           -2.3371
6.43           -2.3279
6.45           -2.3185
6.46           -2.3092
6.48           -2.2998
6.49           -2.2903
6.51           -2.2808
6.52           -2.2713
6.54           -2.2617
6.55           -2.2521
6.57           -2.2425
6.58           -2.2328
6.60           -2.2231
6.61           -2.2133
6.63           -2.2036
6.64           -2.1937
6.66           -2.1839
6.67           -2.1740
6.69           -2.1641
6.70           -2.1542
6.72           -2.1443
6.73           -2.1343
6.75           -2.1243
6.76           -2.1143
6.78           -2.1043
6.79           -2.0943
6.81           -2.0842
6.82           -2.0742
6.84           -2.0641
6.85           -2.0540
6.87           -2.0439
6.88           -2.0338
6.90           -2.0237
6.91           -2.0136
6.93           -2.0034
6.94           -1.9933
6.96           -1.9832
6.97           -1.9731
6.99           -1.9630
7.00           -1.9528
7.02           -1.9427
7.03           -1.9326
7.05           -1.9225
7.06           -1.9124
7.08           -1.9024
7.09           -1.8923
7.11           -1.8822
7.12           -1.8722
7.14           -1.8622
7.15           -1.8522
7.17           -1.8422
7.18           -1.8322
7.20           -1.8223
7.21           -1.8124
7.23           -1.8025
7.24           -1.7926
7.26           -1.7828
7.27           -1.7730
7.29           -1.7632
7.30           -1.7534
7.32           -1.7437
7.33           -1.7340
7.35           -1.7244
7.36           -1.7148
7.38           -1.7052
7.39           -1.6957
7.41           -1.6862
7.42           -1.6768
7.44           -1.6674
7.45           -1.6580
7.47           -1.6487
7.48           -1.6394
7.50           -1.6302
7.51           -1.6211
7.53           -1.6119
7.54           -1.6029
7.56           -1.5939
7.57           -1.5849
7.59           -1.5760
7.60           -1.5672
7.62           -1.5584
7.63           -1.5497
7.65           -1.5411
7.66           -1.5325
7.68           -1.5239
7.69           -1.5155
7.71           -1.5071
7.72           -1.4988
7.74           -1.4905
7.75           -1.4823
7.77           -1.4742
7.78           -1.4662
7.80           -1.4582
7.81           -1.4503
7.83           -1.4425
7.84           -1.4347
7.86           -1.4271
7.87           -1.4195
7.89           -1.4120
7.90           -1.4046
7.92           -1.3972
7.93           -1.3900
7.95           -1.3828
7.96           -1.3757
7.98           -1.3687
7.99           -1.3618
8.01           -1.3549
8.02           -1.3482
8.04           -1.3416
8.05           -1.3350
8.07           -1.3285
8.08           -1.3222
8.10           -1.3159
8.11           -1.3097
8.13           -1.3036
8.14           -1.2976
8.16           -1.2917
8.17           -1.2859
8.19           -1.2802
8.20           -1.2746
8.22           -1.2691
8.23           -1.2637
8.25           -1.2584
8.26           -1.2532
8.28           -1.2481
8.29           -1.2432
8.31           -1.2383
8.32           -1.2335
8.34           -1.2288
8.35           -1.2243
8.37           -1.2198
8.38           -1.2155
8.40           -1.2112
8.41           -1.2071
8.43           -1.2031
8.44           -1.1992
8.46           -1.1954
8.47           -1.1917
8.49           -1.1881
8.50           -1.1847
8.52           -1.1813
8.53           -1.1781
8.55           -1.1750
8.56           -1.1720
8.58           -1.1691
8.59           -1.1663
8.61           -1.1636
8.62           -1.1611
8.64           -1.1587
8.65           -1.1564
8.67           -1.1542
8.68           -1.1521
8.70           -1.1502
8.71           -1.1483
8.73           -1.1466
8.74           -1.1450
8.76           -1.1435
8.77           -1.1421
8.79           -1.1409
8.80           -1.1398
8.82           -1.1388
8.83           -1.1379
8.85           -1.1371
8.86           -1.1365
8.88           -1.1359
8.89           -1.1355
8.91           -1.1353
8.92           -1.1351
8.94           -1.1350
8.95           -1.1351
8.97           -1.1353
8.98           -1.1356
9.00           -1.1361
9.01           -1.1366
9.03           -1.1373
9.04           -1.1381
9.06           -1.1390
9.07           -1.1400
9.09           -1.1412
9.10           -1.1425
9.12           -1.1439
9.13           -1.1454
9.15           -1.1470
9.16           -1.1487
9.18           -1.1506
9.19           -1.1526
9.21           -1.1547
9.22           -1.1569
9.24           -1.1593
9.25           -1.1617
9.27           -1.1643
9.28           -1.1670
9.30           -1.1698
9.31           -1.1727
9.33           -1.1757
9.34           -1.1789
9.36           -1.1822
9.37           -1.1855
9.39           -1.1890
9.40           -1.1926
9.42           -1.1963
9.43           -1.2002
9.45           -1.2041
9.46           -1.2082
9.48           -1.2123
9.49           -1.2166
9.51           -1.2210
9.52           -1.2255
9.54           -1.2301
9.55           -1.2348
9.57           -1.2396
9.58           -1.2445
9.60           -1.2495
9.61           -1.2546
9.63           -1.2599
9.64           -1.2652
9.66           -1.2706
9.67           -1.2762
9.69           -1.2818
9.70           -1.2875
9.72           -1.2934
9.73           -1.2993
9.75           -1.3053
9.76           -1.3115
9.78           -1.3177
9.79           -1.3240
9.81           -1.3304
9.82           -1.3369
9.84           -1.3435
9.85           -1.3502
9.87           -1.3570
9.88           -1.3639
9.90           -1.3708
9.91           -1.3779
9.93           -1.3850
9.94           -1.3922
9.96           -1.3995
9.97           -1.4069
9.99           -1.4144
10.01          -1.4219
10.02          -1.4296
10.04          -1.4373
10.05          -1.4451
10.07          -1.4529
10.08          -1.4609
10.10          -1.4689
10.11          -1.4770
10.13          -1.4851
10.14          -1.4934
10.16          -1.5017
10.17          -1.5101
10.19          -1.5185
10.20          -1.5270
10.22          -1.5356
10.23          -1.5442
10.25          -1.5530
10.26          -1.5617
10.28          -1.5706
10.29          -1.5794
10.31          -1.5884
10.32          -1.5974
10.34          -1.6065
10.35          -1.6156
10.37          -1.6248
10.38          -1.6340
10.40          -1.6433
10.41          -1.6526
10.43          -1.6620
10.44          -1.6714
10.46          -1.6808
10.47          -1.6904
10.49          -1.6999
10.50          -1.7095
10.52          -1.7191
10.53          -1.7288
10.55          -1.7385
10.56          -1.7483
10.58          -1.7581
10.59          -1.7679
10.61          -1.7777
10.62          -1.7876
10.64          -1.7975
10.65          -1.8075
10.67          -1.8175
10.68          -1.8274
10.70          -1.8375
10.71          -1.8475
10.73          -1.8576
10.74          -1.8677
10.76          -1.8778
10.77          -1.8879
10.79          -1.8980
10.80          -1.9082
10.82          -1.9183
10.83          -1.9285
10.85          -1.9387
10.86          -1.9489
10.88          -1.9591
10.89          -1.9693
10.91          -1.9795
10.92          -1.9897
10.94          -1.9999
10.95          -2.0101
10.97          -2.0204
10.98          -2.0306
11.00          -2.0408
11.01          -2.0510
11.03          -2.0612
11.04          -2.0714
11.06          -2.0815
11.07          -2.0917
11.09          -2.1019
11.10          -2.1120
11.12          -2.1221
11.13          -2.1323
11.15          -2.1423
11.16          -2.1524
11.18          -2.1625
11.19          -2.1725
11.21          -2.1825
11.22          -2.1925
11.24          -2.2024
11.25          -2.2124
11.27          -2.2223
11.28          -2.2321
11.30          -2.2420
11.31          -2.2518
11.33          -2.2615
11.34          -2.2713
11.36          -2.2809
11.37          -2.2906
11.39          -2.3002
11.40          -2.3098
11.42          -2.3193
11.43          -2.3288
11.45          -2.3382
11.46          -2.3476
11.48          -2.3570
11.49          -2.3663
11.51          -2.3755
11.52          -2.3847
11.54          -2.3939
11.55          -2.4029
11.57          -2.4120
11.58          -2.4209
11.60          -2.4299
11.61          -2.4387
11.63          -2.4475
11.64          -2.4562
11.66          -2.4649
11.67          -2.4735
11.69          -2.4821
11.70          -2.4905
11.72          -2.4989
11.73          -2.5073
11.75          -2.5155
11.76          -2.5237
11.78          -2.5319
11.79          -2.5399
11.81          -2.5479
11.82          -2.5558
11.84          -2.5636
11.85          -2.5714
11.87          -2.5790
11.88          -2.5866
11.90          -2.5941
11.91          -2.6015
11.93          -2.6089
11.94          -2.6161
11.96          -2.6233
11.97          -2.6304
11.99          -2.6374
12.00          -2.6443
12.02          -2.6511
12.03          -2.6578
12.05          -2.6645
12.06          -2.6710
12.08          -2.6774
12.09          -2.6838
12.11          -2.6901
12.12          -2.6962
12.14          -2.7023
12.15          -2.7083
12.17          -2.7142
12.18          -2.7199
12.20          -2.7256
12.21          -2.7312
12.23          -2.7367
12.24          -2.7420
12.26          -2.7473
12.27          -2.7525
12.29          -2.7575
12.30          -2.7625
12.32          -2.7673
12.33          -2.7721
12.35          -2.7767
12.36          -2.7812
12.38          -2.7857
12.39          -2.7900
12.41          -2.7942
12.42          -2.7983
12.44          -2.8023
12.45          -2.8061
12.47          -2.8099
12.48          -2.8135
12.50          -2.8171
12.51          -2.8205
12.53          -2.8238
12.54          -2.8270
12.56          -2.8301
12.57          -2.8331
12.59          -2.8359
12.60          -2.8386
12.62          -2.8413
12.63          -2.8438
12.65          -2.8461
12.66          -2.8484
12.68          -2.8506
12.69          -2.8526
12.71          -2.8545
12.72          -2.8563
12.74          -2.8580
12.75          -2.8595
12.77          -2.8610
12.78          -2.8623
12.80          -2.8635
12.81          -2.8646
12.83          -2.8655
12.84          -2.8664
12.86          -2.8671
12.87          -2.8677
12.89          -2.8682
12.90          -2.8685
12.92          -2.8687
12.93          -2.8689
12.95          -2.8689
12.96          -2.8687
12.98          -2.8685
