INW
F3OF
DT3
FLAP1
t(s)	FLAP1(deg)
0.0	9.99999999946
0.100020004001	9.97464644085
0.200040008002	9.90705871128
0.300060012002	9.79670224922
0.400080016003	9.64725665386
0.500100020004	9.46289294274
0.600120024005	9.24811651638
0.700140028006	9.00866065244
0.800160032006	8.74978267061
0.900180036007	8.47630772013
1.00020004001	8.1927455196
1.10022004401	7.90279899338
1.20024004801	7.60930120086
1.30026005201	7.31415490476
1.40028005601	7.01835330628
1.50030006001	6.72207494482
1.60032006401	6.424816954
1.70034006801	6.12556213939
1.80036007201	5.8229576399
1.90038007602	5.51548971369
2.00040008002	5.2016412303
2.10042008402	4.88002205239
2.20044008802	4.54946727512
2.30046009202	4.20910238885
2.40048009602	3.85837767052
2.50050010002	3.49707719345
2.60052010402	3.12530830333
2.70054010802	2.74347863079
2.80056011202	2.35226483365
2.90058011602	1.95257771487
3.00060012002	1.54551736801
3.10062012402	1.1323401594
3.20064012803	0.714397744116
3.30066013203	0.29315823675
3.40068013603	-0.129935740747
3.50070014003	-0.553437704504
3.60072014403	-0.975965175503
3.70074014803	-1.39623656892
3.80076015203	-1.81308103324
3.90078015603	-2.22549044595
4.00080016003	-2.63256213605
4.10082016403	-3.03350860221
4.20084016803	-3.42765949086
4.30086017203	-3.81441071892
4.40088017604	-4.19320866638
4.50090018004	-4.56347726357
4.60092018404	-4.92474078108
4.70094018804	-5.27647557245
4.80096019204	-5.61813247714
4.90098019604	-5.9491425706
5.00100020004	-6.26896603231
5.10102020404	-6.57693809751
5.20104020804	-6.87241993615
5.30106021204	-7.15475424176
5.40108021604	-7.42324886526
5.50110022004	-7.677194351
5.60112022404	-7.91586755322
5.70114022805	-8.13854663555
5.80116023205	-8.34452757315
5.90118023605	-8.53314244492
6.00120024005	-8.70377766395
6.10122024405	-8.85588948033
6.20124024805	-8.98901550221
6.30126025205	-9.10278112377
6.40128025605	-9.19690157245
6.50130026005	-9.27117949955
6.60132026405	-9.32550058087
6.70134026805	-9.35982744711
6.80136027205	-9.37419311607
6.90138027606	-9.36869451058
7.00140028006	-9.34348560569
7.10142028406	-9.2987700887
7.20144028806	-9.23479357294
7.30146029206	-9.15183503648
7.40148029606	-9.05019846135
7.50150030006	-8.93020514713
7.60152030406	-8.79218800917
7.70154030806	-8.63648847886
7.80156031206	-8.46345647362
7.90158031606	-8.2734531837
8.00160032006	-8.06685573005
8.10162032406	-7.84406316419
8.20164032807	-7.60550187051
8.30166033207	-7.35162991671
8.40168033607	-7.08293996546
8.50170034007	-6.7999601245
8.60172034407	-6.50325382919
8.70174034807	-6.19341868556
8.80176035207	-5.87108554107
8.90178035607	-5.53691706214
9.00180036007	-5.19160706494
9.10182036407	-4.83587949738
9.20184036807	-4.47048689622
9.30186037207	-4.09620820847
9.40188037608	-3.71384589755
9.50190038008	-3.32422217386
9.60192038408	-2.92817451772
9.70194038808	-2.52655234952
9.80196039208	-2.12021342753
9.90198039608	-1.71002117574
10.0020004001	-1.29683603258
10.1020204041	-0.881509397049
10.2020404081	-0.464897662076
10.3020604121	-0.0478572657287
10.4020804161	0.368763929961
10.5021004201	0.784119995144
10.6021204241	1.19737254134
10.7021404281	1.60769193504
10.8021604321	2.01425800688
10.9021804361	2.41625613203
11.0022004401	2.81287021622
11.1022204441	3.20329432251
11.2022404481	3.58673821959
11.3022604521	3.96241033372
11.4022804561	4.32953371101
11.5023004601	4.68734332129
11.6023204641	5.03508940642
11.7023404681	5.37204152024
11.8023604721	5.69749128914
11.9023804761	6.01075519229
12.0024004801	6.31117600645
12.1024204841	6.59812320408
12.2024404881	6.87099328772
12.3024604921	7.1292099919
12.4024804961	7.37222367567
12.5025005001	7.59951684857
12.6025205041	7.8106027916
12.7025405081	8.00502878834
12.8025605121	8.18238000934
12.9025805161	8.34228117453
13.0026005201	8.48439823103
13.1026205241	8.60843859742
13.2026405281	8.71415154623
13.3026605321	8.80132709151
13.4026805361	8.86979615021
13.5027005401	8.91943118042
13.6027205441	8.95014618913
13.7027405481	8.96189977858
13.8027605521	8.95469485629
13.9027805561	8.92858157926
14.0028005601	8.88365585324
14.1028205641	8.82005875619
14.2028405681	8.73797465085
14.3028605721	8.63762646339
14.4028805761	8.51927467437
14.5029005801	8.38321180101
14.6029205841	8.22976214898
14.7029405881	8.05927932034
14.8029605921	7.87214550828
14.9029805961	7.66877185332
15.0030006001	7.44959719458
15.1030206041	7.21508754582
15.2030406081	6.96573569531
15.3030606121	6.70205745934
15.4030806161	6.42459163945
15.5031006201	6.13389790584
15.6031206241	5.83055609466
15.7031406281	5.51516519397
15.8031606321	5.18834384917
15.9031806361	4.85073089534
16.0032006401	4.50298479807
16.1032206441	4.14578355013
16.2032406481	3.77982412325
16.3032606521	3.40581956198
16.4032806561	3.02449898588
16.5033006601	2.63660377919
16.6033206641	2.24288747556
16.7033406681	1.84411562771
16.8033606721	1.44106212133
16.9033806761	1.03450013688
17.0034006801	0.625209637662
17.1034206841	0.214007116015
17.2034406881	-0.198314280891
17.3034606921	-0.610920223422
17.4034806961	-1.02297228243
17.5035007001	-1.43362067175
17.6035207041	-1.84200134089
17.7035407081	-2.24724104785
17.8035607121	-2.64844482436
17.9035807161	-3.04470374803
18.0036007201	-3.43511774911
18.1036207241	-3.81877374923
18.2036407281	-4.19476370109
18.3036607321	-4.5621887876
18.4036807361	-4.92016386601
18.5037007401	-5.26782505899
18.6037207441	-5.60433655021
18.7037407481	-5.92889695644
18.8037607522	-6.24074461566
18.9037807562	-6.53916313493
19.0038007602	-6.82348440581
19.1038207642	-7.09309176821
19.2038407682	-7.34742263564
19.3038607722	-7.5859698681
19.4038807762	-7.80828304499
19.5039007802	-8.01396824088
19.6039207842	-8.20268680318
19.7039407882	-8.37415321332
19.8039607922	-8.52813050328
19.9039807962	-8.6644250593
20.0040008002	-8.78288087706
20.1040208042	-8.88337253463
20.2040408082	-8.96579967087
20.3040608122	-9.03008131045
20.4040808162	-9.07615217079
20.5041008202	-9.10395994538
20.6041208242	-9.11346369814
20.7041408282	-9.10463384928
20.8041608322	-9.07745271068
20.9041808362	-9.03191592984
21.0042008402	-8.96803502687
21.1042208442	-8.88584109715
21.2042408482	-8.78539007122
21.3042608522	-8.66676468634
21.4042808562	-8.53009378872
21.5043008602	-8.37554676114
21.6043208642	-8.20334696388
21.7043408682	-8.01377930056
21.8043608722	-7.80719647731
21.9043808762	-7.58402317239
22.0044008802	-7.34475781805
22.1044208842	-7.0899721148
22.2044408882	-6.82030814702
22.3044608922	-6.5364730658
22.4044808962	-6.2392324994
22.5045009002	-5.92940222182
22.6045209042	-5.60783809323
22.7045409082	-5.27542535998
22.8045609122	-4.93306658199
22.9045809162	-4.58159332572
23.0046009202	-4.22197990848
23.1046209242	-3.8551020134
23.2046409282	-3.48180706107
23.3046609322	-3.10290514591
23.4046809362	-2.71915593859
23.5047009402	-2.33127233432
23.6047209442	-1.93991862962
23.7047409482	-1.54571564013
23.8047609522	-1.14923682868
23.9047809562	-0.751023504138
24.0048009602	-0.351620404292
24.1048209642	0.0484383565016
24.2048409682	0.448597084953
24.3048609722	0.848268562028
24.4048809762	1.2468204112
24.5049009802	1.64356392758
24.6049209842	2.03774557257
24.7049409882	2.4285372957
24.8049609922	2.81503128191
24.9049809962	3.19625822128
25.0050010002	3.57119806144
25.1050210042	3.93878262685
25.2050410082	4.29792566204
25.3050610122	4.64754018848
25.4050810162	4.9865612618
25.5051010202	5.31397103457
25.6051210242	5.62881973585
25.7051410282	5.93024606058
25.8051610322	6.21749337473
25.9051810362	6.48992159264
26.0052010402	6.74701365849
26.1052210442	6.98837651951
26.2052410482	7.21373711487
26.3052610522	7.42293057954
26.4052810562	7.61588480048
26.5053010602	7.79259976057
26.6053210642	7.95312235499
26.7053410682	8.09752207459
26.8053610722	8.22585923833
26.9053810762	8.3381715816
27.0054010802	8.43443434031
27.1054210842	8.51455669993
27.2054410882	8.57837388256
27.3054610922	8.62564721823
27.4054810962	8.65607188952
27.5055011002	8.66929200936
27.6055211042	8.66492191132
27.7055411082	8.64257217696
27.8055611122	8.60187864396
27.9055811162	8.54253261669
28.0056011202	8.46431027214
28.1056211242	8.36709897852
28.2056411282	8.25091884302
28.3056611322	8.11593776465
28.4056811362	7.96244483953
28.5057011402	7.79095725744
28.6057211442	7.60209762882
28.7057411482	7.39655514114
28.8057611522	7.17517080181
28.9057811562	6.93884168861
29.0058011602	6.68849350582
29.1058211642	6.42504617691
29.2058411682	6.14937824181
29.3058611722	5.8623016696
29.4058811762	5.56454135193
29.5059011802	5.25672396691
29.6059211842	4.93937714837
29.7059411882	4.61293726583
29.8059611922	4.27776655086
29.9059811962	3.93417730976
30.0060012002	3.58246129841
30.1060212042	3.22292277717
30.2060412082	2.85593342849
30.3060612122	2.48189099257
30.4060812162	2.10133159962
30.5061012202	1.71490475816
30.6061212242	1.32338078079
30.7061412282	0.927644995043
30.8061612322	0.528695650102
30.9061812362	0.127624426854
31.0062012402	-0.27441499397
31.1062212442	-0.676238090582
31.2062412482	-1.07666382111
31.3062612523	-1.47454762736
31.4062812563	-1.86881025279
31.5063012603	-2.25845927969
31.6063212643	-2.64259211951
31.7063412683	-3.02040987266
31.8063612723	-3.39122399505
31.9063812763	-3.75443586286
32.0064012803	-4.10951921088
32.1064212843	-4.45599782342
32.2064412883	-4.79341940915
32.3064612923	-5.12132895808
32.4064812963	-5.43924606631
32.5065013003	-5.74664657755
32.6065213043	-6.0429513252
32.7065413083	-6.32757888912
32.8065613123	-6.59978134744
32.9065813163	-6.85883000965
33.0066013203	-7.10399659641
33.1066213243	-7.3345340059
33.2066413283	-7.54972915402
33.3066613323	-7.74891822887
33.4066813363	-7.93151958854
33.5067013403	-8.0970397061
33.6067213443	-8.245072463
33.7067413483	-8.37532416876
33.8067613523	-8.48759907809
33.9067813563	-8.5817745098
34.0068013603	-8.65780285052
34.1068213643	-8.71568701
34.2068413683	-8.75546331378
34.3068613723	-8.77719166909
34.4068813763	-8.7809487973
34.5069013803	-8.76679996282
34.6069213843	-8.73480973414
34.7069413883	-8.68503894813
34.8069613923	-8.61756871614
34.9069813963	-8.53249450346
35.0070014003	-8.42994101825
35.1070214043	-8.31007612333
35.2070414083	-8.17312018263
35.3070614123	-8.01935408871
35.4070814163	-7.84912205587
35.5071014203	-7.66283051957
35.6071214243	-7.46094191338
35.7071414283	-7.2439658969
35.8071614323	-7.01244795718
35.9071814363	-6.76695724029
36.0072014403	-6.50807709712
36.1072214443	-6.23639604439
36.2072414483	-5.95250315113
36.3072614523	-5.65698701356
36.4072814563	-5.35043777346
36.5073014603	-5.03345157129
36.6073214643	-4.70663773603
36.7073414683	-4.37062492838
36.8073614723	-4.02606784303
36.9073814763	-3.67365119827
37.0074014803	-3.31409274056
37.1074214843	-2.94814366994
37.2074414883	-2.57658410087
37.3074614923	-2.20021954201
37.4074814963	-1.81987282031
37.5075015003	-1.43637320538
37.6075215043	-1.05053916889
37.7075415083	-0.663180867541
37.8075615123	-0.275106044672
37.9075815163	0.112902898228
38.0076015203	0.500074354833
38.1076215243	0.8856499631
38.2076415283	1.26887922496
38.3076615323	1.6490161235
38.4076815363	2.02531307996
38.5077015403	2.39701429665
38.6077215443	2.76334862381
38.7077415483	3.12354389909
38.8077615523	3.47683339668
38.9077815563	3.82244909429
39.0078015603	4.15964015394
39.1078215643	4.48767578289
39.2078415683	4.80585422359
39.3078615723	5.1135060495
39.4078815763	5.40999976826
39.5079015803	5.69474291478
39.6079215843	5.96718108504
39.7079415883	6.22679737609
39.8079615923	6.4731086469
39.9079815963	6.70566200206
40.0080016003	6.92403099703
40.1080216043	7.12781214776
40.2080416083	7.31662174584
40.3080616123	7.49009350261
40.4080816163	7.64787754201
40.5081016203	7.78964117029
40.6081216243	7.9150707677
40.7081416283	8.02387515093
40.8081616323	8.1157901172
40.9081816363	8.19058392429
41.0082016403	8.2480629523
41.1082216443	8.28807538786
41.2082416483	8.31052243694
41.3082616523	8.31535539142
41.4082816563	8.30257793525
41.5083016603	8.27225202317
41.6083216643	8.22449623157
41.7083416683	8.15947549637
41.8083616723	8.07740712648
41.9083816763	7.97855040251
42.0084016803	7.86322006002
42.1084216843	7.73172161057
42.2084416883	7.58441263302
42.3084616923	7.4216541632
42.4084816963	7.24381640091
42.5085017003	7.05124281956
42.6085217043	6.84434265941
42.7085417083	6.62349721351
42.8085617123	6.38909620329
42.9085817163	6.14154596085
43.0086017203	5.88127433536
43.1086217243	5.60874098507
43.2086417283	5.32444445535
43.3086617323	5.02892725214
43.4086817363	4.72277896149
43.5087017403	4.40663536948
43.6087217443	4.08117318044
43.7087417483	3.74710376884
43.8087617524	3.40516397699
43.9087817564	3.05610737106
44.0088017604	2.70069572527
44.1088217644	2.33969147346
44.2088417684	1.97385352097
44.3088617724	1.60393482715
44.4088817764	1.23067392958
44.5089017804	0.854798146285
44.6089217844	0.477045481194
44.7089417884	0.0981514821244
44.8089617924	-0.281139021164
44.9089817964	-0.660069298062
45.0090018004	-1.03786933626
45.1090218044	-1.41375840805
45.2090418084	-1.78694620392
45.3090618124	-2.15663832584
45.4090818164	-2.52203269166
45.5091018204	-2.88232705327
45.6091218244	-3.23674063693
45.7091418284	-3.58450573068
45.8091618324	-3.92487319282
45.9091818364	-4.25711831547
46.0092018404	-4.58053872785
46.1092218444	-4.89445292585
46.2092418484	-5.1982012664
46.3092618524	-5.49114476922
46.4092818564	-5.77266434114
46.5093018604	-6.04216400207
46.6093218644	-6.29907243082
46.7093418684	-6.5428454118
46.8093618724	-6.77296913214
46.9093818764	-6.9889624263
47.0094018804	-7.1903779276
47.1094218844	-7.37680327102
47.2094418884	-7.54785958838
47.3094618924	-7.70320050051
47.4094818964	-7.84251122702
47.5095019004	-7.96547883151
47.6095219044	-8.07187527032
47.7095419084	-8.16148545865
47.8095619124	-8.23413404137
47.9095819164	-8.28965346162
48.0096019204	-8.32792881591
48.1096219244	-8.34887232636
48.2096419284	-8.35244926777
48.3096619324	-8.33866735507
48.4096819364	-8.30757564293
48.5097019404	-8.25927141533
48.6097219444	-8.19389336977
48.7097419484	-8.11162321453
48.8097619524	-8.01268499261
48.9097819564	-7.8973449571
49.0098019604	-7.76590304097
49.1098219644	-7.61869713247
49.2098419684	-7.45609725381
49.3098619724	-7.27850309347
49.4098819764	-7.08633974896
49.5099019804	-6.88005394301
49.6099219844	-6.66011408958
49.7099419884	-6.427005925
49.8099619924	-6.18123290219
49.9099819964	-5.92331452851
50.0100020004	-5.65378700213
50.1100220044	-5.37320151597
50.2100420084	-5.08212711009
50.3100620124	-4.78114935854
50.4100820164	-4.47087051267
50.5101020204	-4.15191038376
50.6101220244	-3.82490570255
50.7101420284	-3.49051126436
50.8101620324	-3.14940163699
50.9101820364	-2.80227113234
51.0102020404	-2.44983504822
51.1102220444	-2.09283084753
51.2102420484	-1.73201637843
51.3102620524	-1.36816125338
51.4102820564	-1.00204108722
51.5103020604	-0.634444604196
51.6103220644	-0.266166113518
51.7103420684	0.102006150871
51.8103620724	0.469288574343
51.9103820764	0.834909262959
52.0104020804	1.19811123168
52.1104220844	1.55815413415
52.2104420884	1.91431608835
52.3104620924	2.2658926462
52.4104820964	2.61218642619
52.5105021004	2.95251304986
52.6105221044	3.28621929732
52.7105421084	3.61265366406
52.8105621124	3.9311851005
52.9105821164	4.24119598861
53.0106021204	4.54208158387
53.1106221244	4.83324985627
53.2106421284	5.11412038688
53.3106621324	5.38412445612
53.4106821364	5.64270606175
53.5107021404	5.88932234963
53.6107221444	6.12344488032
53.7107421484	6.34456245657
53.8107621524	6.55218342997
53.9107821564	6.7458395351
54.0108021604	6.92509042046
54.1108221644	7.08952884258
54.2108421684	7.2387854331
54.3108621724	7.37253460639
54.4108821764	7.4904986302
54.5109021804	7.59245211405
54.6109221844	7.67822329304
54.7109421884	7.7476946375
54.8109621924	7.80079999017
54.9109821964	7.83752094723
55.0110022004	7.85788057388
55.1110222044	7.86193626094
55.2110422084	7.8497729329
55.3110622124	7.82149628756
55.4110822164	7.77722753284
55.5111022204	7.71710002096
55.6111222244	7.64125755151
55.7111422284	7.54985459641
55.8111622324	7.44305795365
55.9111822364	7.32104987416
56.0112022404	7.18403157246
56.1112222444	7.0322271953
56.2112422484	6.86588840193
56.3112622525	6.68529854356
56.4112822565	6.49077612951
56.5113022605	6.28267951009
56.6113222645	6.06140993604
56.7113422685	5.82741400654
56.8113622725	5.58118496087
56.9113822765	5.32326174003
57.0114022805	5.05422689871
57.1114222845	4.77470222043
57.2114422885	4.48534098485
57.3114622925	4.18682038837
57.4114822965	3.87983341033
57.5115023005	3.56507980203
57.6115223045	3.24325796413
57.7115423085	2.9150594967
57.8115623125	2.5811636408
57.9115823165	2.2422374149
58.0116023205	1.89893507445
58.1116223245	1.55189965642
58.2116423285	1.20175668179
58.3116623325	0.849122499603
58.4116823365	0.494631863279
58.5117023405	0.138914907428
58.6117223445	-0.217378624395
58.7117423485	-0.57357948565
58.8117623525	-0.928995519651
58.9117823565	-1.28290842259
59.0118023605	-1.63457543828
59.1118223645	-1.98322958793
59.2118423685	-2.3280823363
59.3118623725	-2.66832245539
59.4118823765	-3.00313365679
59.5119023805	-3.33171568793
59.6119223845	-3.65327344594
59.7119423885	-3.96704263888
59.8119623925	-4.27229441555
59.9119823965	-4.56834200537
60.0120024005	-4.85454553405
60.1120224045	-5.13031354333
60.2120424085	-5.39510400389
60.3120624125	-5.64842078989
60.4120824165	-5.88980862497
60.5121024205	-6.11884688225
60.6121224245	-6.33514412522
60.7121424285	-6.53832967695
60.8121624325	-6.72804839398
60.9121824365	-6.90395588067
61.0122024405	-7.06571595218
61.1122224445	-7.21299933594
61.2122424485	-7.34548513767
61.3122624525	-7.46286450216
61.4122824565	-7.56484524386
61.5123024605	-7.65115869009
61.6123224645	-7.72156680769
61.7123424685	-7.77586928145
61.8123624725	-7.81391082632
61.9123824765	-7.83558680168
62.0124024805	-7.84084709592
62.1124224845	-7.82969887352
62.2124424885	-7.80220651626
62.3124624925	-7.75849004694
62.4124824965	-7.69872102819
62.5125025005	-7.62311729668
62.6125225045	-7.53193636588
62.7125425085	-7.42546789762
62.8125625125	-7.30402588304
62.9125825165	-7.16794420215
63.0126025205	-7.01756905046
63.1126225245	-6.85326034348
63.2126425285	-6.67538248149
63.3126625325	-6.48431050652
63.4126825365	-6.28042879553
63.5127025405	-6.06413709671
63.6127225445	-5.8358536621
63.7127425485	-5.596020829
63.8127625525	-5.34510816919
63.9127825565	-5.08361626643
64.0128025605	-4.81207872781
64.1128225645	-4.5310618381
64.2128425685	-4.24116433559
64.3128625725	-3.94301449737
64.4128825765	-3.63726652009
64.5129025805	-3.32459602626
64.6129225845	-3.00569473185
64.7129425885	-2.68126497201
64.8129625925	-2.35201453102
64.9129825965	-2.01865225241
65.0130026005	-1.68188328932
65.1130226045	-1.34239925276
65.2130426085	-1.00087633574
65.3130626125	-0.657990418458
65.4130826165	-0.31440723574
65.5131026205	0.029213624806
65.6131226245	0.37221216238
65.7131426285	0.713926647763
65.8131626325	1.05369110372
65.9131826365	1.39083385941
66.0132026405	1.72467689707
66.1132226445	2.0545364076
66.2132426485	2.37972082544
66.3132626525	2.69953071956
66.4132826565	3.0132778483
66.5133026605	3.32028476725
66.6133226645	3.61988585327
66.7133426685	3.9114387755
66.8133626725	4.19432607618
66.9133826765	4.46795775863
67.0134026805	4.73177504245
67.1134226845	4.98525016134
67.2134426885	5.22788737387
67.3134626925	5.45922171018
67.4134826965	5.67881753241
67.5135027005	5.88626669104
67.6135227045	6.08118630813
67.7135427085	6.26321672584
67.8135627125	6.4320198685
67.9135827165	6.5872779561
68.0136027205	6.72869385872
68.1136227245	6.85599149247
68.2136427285	6.96891753869
68.3136627325	7.06724385023
68.4136827365	7.15076954787
68.5137027405	7.21932419125
68.6137227445	7.27277036158
68.7137427485	7.31100542106
68.8137627526	7.3339630369
68.9137827566	7.34161385599
69.0138027606	7.3339654679
69.1138227646	7.31106130889
69.2138427686	7.27297978313
69.3138627726	7.21983238515
69.4138827766	7.15176222582
69.5139027806	7.06894207219
69.6139227846	6.97157311829
69.7139427886	6.85988266433
69.8139627926	6.73412601508
69.9139827966	6.59458288576
70.0140028006	6.44155814714
