Time (s)  Flap Rotation y (radians)Flap Rotation y (degrees)
0.03                0.1745         10.0025
0.06                0.1744          9.9973
0.09                0.1743          9.9895
0.12                0.1741          9.9792
0.15                0.1739          9.9663
0.18                0.1736          9.9510
0.21                0.1733          9.9332
0.24                0.1729          9.9130
0.27                0.1725          9.8904
0.30                0.1721          9.8656
0.33                0.1716          9.8386
0.36                0.1711          9.8094
0.39                0.1706          9.7782
0.42                0.1700          9.7450
0.45                0.1694          9.7099
0.48                0.1687          9.6730
0.51                0.1681          9.6344
0.54                0.1674          9.5942
0.57                0.1666          9.5524
0.60                0.1659          9.5092
0.63                0.1651          9.4647
0.66                0.1643          9.4189
0.69                0.1635          9.3720
0.72                0.1627          9.3240
0.75                0.1618          9.2750
0.78                0.1609          9.2251
0.81                0.1600          9.1744
0.84                0.1591          9.1230
0.87                0.1582          9.0710
0.90                0.1573          9.0183
0.93                0.1564          8.9652
0.96                0.1555          8.9116
0.99                0.1545          8.8577
1.02                0.1536          8.8035
1.05                0.1526          8.7490
1.08                0.1517          8.6943
1.11                0.1507          8.6395
1.14                0.1498          8.5845
1.17                0.1488          8.5295
1.20                0.1478          8.4745
1.23                0.1469          8.4195
1.26                0.1459          8.3645
1.29                0.1450          8.3095
1.32                0.1440          8.2546
1.35                0.1430          8.1998
1.38                0.1421          8.1451
1.41                0.1411          8.0904
1.44                0.1402          8.0359
1.47                0.1392          7.9814
1.50                0.1383          7.9270
1.53                0.1373          7.8727
1.56                0.1364          7.8185
1.59                0.1354          7.7643
1.62                0.1345          7.7101
1.65                0.1336          7.6559
1.68                0.1326          7.6018
1.71                0.1317          7.5476
1.74                0.1307          7.4933
1.77                0.1298          7.4389
1.80                0.1288          7.3845
1.83                0.1279          7.3298
1.86                0.1269          7.2750
1.89                0.1259          7.2200
1.92                0.1250          7.1647
1.95                0.1240          7.1092
1.98                0.1230          7.0534
2.01                0.1221          6.9972
2.04                0.1211          6.9407
2.07                0.1201          6.8837
2.10                0.1191          6.8264
2.13                0.1181          6.7685
2.16                0.1171          6.7102
2.19                0.1160          6.6514
2.22                0.1150          6.5920
2.25                0.1139          6.5321
2.28                0.1129          6.4716
2.31                0.1118          6.4104
2.34                0.1107          6.3487
2.37                0.1097          6.2862
2.40                0.1086          6.2232
2.43                0.1074          6.1594
2.46                0.1063          6.0949
2.49                0.1052          6.0297
2.52                0.1040          5.9638
2.55                0.1029          5.8972
2.58                0.1017          5.8298
2.61                0.1005          5.7617
2.64                0.0993          5.6928
2.67                0.0981          5.6232
2.70                0.0969          5.5529
2.73                0.0956          5.4818
2.76                0.0944          5.4100
2.79                0.0931          5.3374
2.82                0.0918          5.2642
2.85                0.0905          5.1902
2.88                0.0892          5.1154
2.91                0.0879          5.0400
2.94                0.0866          4.9639
2.97                0.0853          4.8872
3.00                0.0839          4.8097
3.03                0.0825          4.7317
3.06                0.0812          4.6529
3.09                0.0798          4.5736
3.12                0.0784          4.4937
3.15                0.0770          4.4132
3.18                0.0756          4.3321
3.21                0.0741          4.2505
3.24                0.0727          4.1684
3.27                0.0713          4.0858
3.30                0.0698          4.0027
3.33                0.0684          3.9191
3.36                0.0669          3.8351
3.39                0.0654          3.7507
3.42                0.0639          3.6658
3.45                0.0625          3.5806
3.48                0.0610          3.4950
3.51                0.0595          3.4091
3.54                0.0580          3.3228
3.57                0.0565          3.2363
3.60                0.0549          3.1494
3.63                0.0534          3.0623
3.66                0.0519          2.9750
3.69                0.0504          2.8874
3.72                0.0488          2.7995
3.75                0.0473          2.7115
3.78                0.0458          2.6233
3.81                0.0442          2.5349
3.84                0.0427          2.4464
3.87                0.0411          2.3577
3.90                0.0396          2.2689
3.93                0.0380          2.1800
3.96                0.0365          2.0910
3.99                0.0349          2.0019
4.02                0.0334          1.9127
4.05                0.0318          1.8234
4.08                0.0303          1.7341
4.11                0.0287          1.6447
4.14                0.0271          1.5553
4.17                0.0256          1.4659
4.20                0.0240          1.3764
4.23                0.0224          1.2869
4.26                0.0209          1.1974
4.29                0.0193          1.1080
4.32                0.0178          1.0185
4.35                0.0162          0.9290
4.38                0.0146          0.8396
4.41                0.0131          0.7502
4.44                0.0115          0.6608
4.47                0.0100          0.5714
4.50                0.0084          0.4821
4.53                0.0069          0.3929
4.56                0.0053          0.3037
4.59                0.0037          0.2145
4.62                0.0022          0.1254
4.65                0.0006          0.0364
4.68               -0.0009         -0.0525
4.71               -0.0025         -0.1414
4.74               -0.0040         -0.2302
4.77               -0.0056         -0.3189
4.80               -0.0071         -0.4075
4.83               -0.0087         -0.4960
4.86               -0.0102         -0.5844
4.89               -0.0117         -0.6727
4.92               -0.0133         -0.7609
4.95               -0.0148         -0.8490
4.98               -0.0163         -0.9370
5.01               -0.0179         -1.0248
5.04               -0.0194         -1.1125
5.07               -0.0209         -1.2000
5.10               -0.0225         -1.2875
5.13               -0.0240         -1.3747
5.16               -0.0255         -1.4618
5.19               -0.0270         -1.5488
5.22               -0.0285         -1.6355
5.25               -0.0300         -1.7221
5.28               -0.0315         -1.8085
5.31               -0.0331         -1.8948
5.34               -0.0346         -1.9808
5.37               -0.0361         -2.0666
5.40               -0.0375         -2.1522
5.43               -0.0390         -2.2376
5.46               -0.0405         -2.3227
5.49               -0.0420         -2.4076
5.52               -0.0435         -2.4923
5.55               -0.0449         -2.5767
5.58               -0.0464         -2.6609
5.61               -0.0479         -2.7447
5.64               -0.0493         -2.8283
5.67               -0.0508         -2.9116
5.70               -0.0522         -2.9947
5.73               -0.0537         -3.0774
5.76               -0.0551         -3.1598
5.79               -0.0566         -3.2419
5.82               -0.0580         -3.3236
5.85               -0.0594         -3.4051
5.88               -0.0608         -3.4861
5.91               -0.0622         -3.5669
5.94               -0.0636         -3.6472
5.97               -0.0650         -3.7272
6.00               -0.0664         -3.8068
6.03               -0.0678         -3.8861
6.06               -0.0692         -3.9649
6.09               -0.0705         -4.0433
6.12               -0.0719         -4.1213
6.15               -0.0732         -4.1989
6.18               -0.0746         -4.2761
6.21               -0.0759         -4.3528
6.24               -0.0773         -4.4291
6.27               -0.0786         -4.5050
6.30               -0.0799         -4.5803
6.33               -0.0812         -4.6553
6.36               -0.0825         -4.7297
6.39               -0.0838         -4.8037
6.42               -0.0851         -4.8772
6.45               -0.0864         -4.9502
6.48               -0.0876         -5.0226
6.51               -0.0889         -5.0946
6.54               -0.0901         -5.1661
6.57               -0.0914         -5.2371
6.60               -0.0926         -5.3075
6.63               -0.0938         -5.3774
6.66               -0.0950         -5.4468
6.69               -0.0962         -5.5156
6.72               -0.0974         -5.5839
6.75               -0.0986         -5.6516
6.78               -0.0998         -5.7187
6.81               -0.1009         -5.7853
6.84               -0.1021         -5.8513
6.87               -0.1032         -5.9168
6.90               -0.1043         -5.9816
6.93               -0.1055         -6.0459
6.96               -0.1066         -6.1096
6.99               -0.1077         -6.1726
7.02               -0.1088         -6.2351
7.05               -0.1098         -6.2970
7.08               -0.1109         -6.3582
7.11               -0.1120         -6.4188
7.14               -0.1130         -6.4788
7.17               -0.1141         -6.5382
7.20               -0.1151         -6.5969
7.23               -0.1161         -6.6550
7.26               -0.1171         -6.7124
7.29               -0.1181         -6.7692
7.32               -0.1191         -6.8253
7.35               -0.1200         -6.8808
7.38               -0.1210         -6.9356
7.41               -0.1219         -6.9897
7.44               -0.1229         -7.0432
7.47               -0.1238         -7.0959
7.50               -0.1247         -7.1480
7.53               -0.1256         -7.1994
7.56               -0.1265         -7.2501
7.59               -0.1273         -7.3000
7.62               -0.1282         -7.3493
7.65               -0.1291         -7.3978
7.68               -0.1299         -7.4457
7.71               -0.1307         -7.4928
7.74               -0.1315         -7.5391
7.77               -0.1323         -7.5848
7.80               -0.1331         -7.6297
7.83               -0.1339         -7.6738
7.86               -0.1346         -7.7172
7.89               -0.1354         -7.7598
7.92               -0.1361         -7.8017
7.95               -0.1368         -7.8428
7.98               -0.1375         -7.8832
8.01               -0.1382         -7.9227
8.04               -0.1389         -7.9615
8.07               -0.1395         -7.9995
8.10               -0.1402         -8.0367
8.13               -0.1408         -8.0731
8.16               -0.1415         -8.1087
8.19               -0.1421         -8.1435
8.22               -0.1427         -8.1775
8.25               -0.1432         -8.2107
8.28               -0.1438         -8.2431
8.31               -0.1443         -8.2746
8.34               -0.1449         -8.3053
8.37               -0.1454         -8.3352
8.40               -0.1459         -8.3642
8.43               -0.1464         -8.3924
8.46               -0.1469         -8.4198
8.49               -0.1473         -8.4463
8.52               -0.1478         -8.4720
8.55               -0.1482         -8.4968
8.58               -0.1486         -8.5208
8.61               -0.1490         -8.5439
8.64               -0.1494         -8.5662
8.67               -0.1498         -8.5876
8.70               -0.1502         -8.6081
8.73               -0.1505         -8.6278
8.76               -0.1508         -8.6466
8.79               -0.1511         -8.6645
8.82               -0.1514         -8.6815
8.85               -0.1517         -8.6977
8.88               -0.1520         -8.7130
8.91               -0.1522         -8.7275
8.94               -0.1525         -8.7411
8.97               -0.1527         -8.7537
9.00               -0.1529         -8.7656
9.03               -0.1531         -8.7765
9.06               -0.1533         -8.7865
9.09               -0.1534         -8.7957
9.12               -0.1536         -8.8040
9.15               -0.1537         -8.8115
9.18               -0.1538         -8.8180
9.21               -0.1539         -8.8237
9.24               -0.1540         -8.8285
9.27               -0.1541         -8.8325
9.30               -0.1541         -8.8355
9.33               -0.1542         -8.8377
9.36               -0.1542         -8.8391
9.39               -0.1542         -8.8395
9.42               -0.1542         -8.8391
9.45               -0.1542         -8.8378
9.48               -0.1541         -8.8357
9.51               -0.1541         -8.8327
9.54               -0.1540         -8.8289
9.57               -0.1539         -8.8242
9.60               -0.1538         -8.8186
9.63               -0.1537         -8.8122
9.66               -0.1536         -8.8049
9.69               -0.1535         -8.7968
9.72               -0.1533         -8.7878
9.75               -0.1531         -8.7780
9.78               -0.1529         -8.7674
9.81               -0.1527         -8.7559
9.84               -0.1525         -8.7436
9.87               -0.1523         -8.7305
9.90               -0.1521         -8.7165
9.93               -0.1518         -8.7017
9.96               -0.1515         -8.6860
9.99               -0.1512         -8.6696
10.02              -0.1509         -8.6523
10.05              -0.1506         -8.6342
10.08              -0.1503         -8.6153
10.11              -0.1499         -8.5956
10.14              -0.1496         -8.5751
10.17              -0.1492         -8.5538
10.20              -0.1488         -8.5317
10.23              -0.1484         -8.5087
10.26              -0.1480         -8.4850
10.29              -0.1476         -8.4605
10.32              -0.1471         -8.4352
10.35              -0.1467         -8.4091
10.38              -0.1462         -8.3822
10.41              -0.1457         -8.3545
10.44              -0.1452         -8.3260
10.47              -0.1447         -8.2968
10.50              -0.1442         -8.2668
10.53              -0.1437         -8.2360
10.56              -0.1431         -8.2044
10.59              -0.1426         -8.1721
10.62              -0.1420         -8.1390
10.65              -0.1414         -8.1051
10.68              -0.1408         -8.0705
10.71              -0.1402         -8.0351
10.74              -0.1395         -7.9990
10.77              -0.1389         -7.9621
10.80              -0.1382         -7.9244
10.83              -0.1376         -7.8861
10.86              -0.1369         -7.8469
10.89              -0.1362         -7.8071
10.92              -0.1355         -7.7665
10.95              -0.1348         -7.7251
10.98              -0.1340         -7.6831
11.01              -0.1333         -7.6403
11.04              -0.1325         -7.5968
11.07              -0.1317         -7.5525
11.10              -0.1310         -7.5076
11.13              -0.1302         -7.4619
11.16              -0.1294         -7.4156
11.19              -0.1285         -7.3685
11.22              -0.1277         -7.3207
11.25              -0.1269         -7.2723
11.28              -0.1260         -7.2231
11.31              -0.1251         -7.1733
11.34              -0.1243         -7.1228
11.37              -0.1234         -7.0716
11.40              -0.1225         -7.0197
11.43              -0.1215         -6.9672
11.46              -0.1206         -6.9140
11.49              -0.1197         -6.8602
11.52              -0.1187         -6.8057
11.55              -0.1178         -6.7505
11.58              -0.1168         -6.6948
11.61              -0.1158         -6.6383
11.64              -0.1148         -6.5813
11.67              -0.1138         -6.5237
11.70              -0.1128         -6.4654
11.73              -0.1118         -6.4065
11.76              -0.1107         -6.3470
11.79              -0.1097         -6.2869
11.82              -0.1086         -6.2263
11.85              -0.1075         -6.1650
11.88              -0.1065         -6.1032
11.91              -0.1054         -6.0408
11.94              -0.1043         -5.9779
11.97              -0.1032         -5.9144
12.00              -0.1021         -5.8503
12.03              -0.1009         -5.7858
12.06              -0.0998         -5.7206
12.09              -0.0986         -5.6550
12.12              -0.0975         -5.5888
12.15              -0.0963         -5.5222
12.18              -0.0952         -5.4550
12.21              -0.0940         -5.3874
12.24              -0.0928         -5.3192
12.27              -0.0916         -5.2506
12.30              -0.0904         -5.1815
12.33              -0.0892         -5.1119
12.36              -0.0880         -5.0419
12.39              -0.0867         -4.9714
12.42              -0.0855         -4.9005
12.45              -0.0842         -4.8292
12.48              -0.0830         -4.7574
12.51              -0.0817         -4.6852
12.54              -0.0805         -4.6126
12.57              -0.0792         -4.5396
12.60              -0.0779         -4.4662
12.63              -0.0766         -4.3924
12.66              -0.0753         -4.3182
12.69              -0.0740         -4.2437
12.72              -0.0727         -4.1688
12.75              -0.0714         -4.0936
12.78              -0.0701         -4.0180
12.81              -0.0688         -3.9420
12.84              -0.0674         -3.8657
12.87              -0.0661         -3.7891
12.90              -0.0648         -3.7122
12.93              -0.0634         -3.6350
12.96              -0.0621         -3.5574
12.99              -0.0607         -3.4796
13.02              -0.0593         -3.4014
13.05              -0.0580         -3.3230
13.08              -0.0566         -3.2443
13.11              -0.0552         -3.1654
13.14              -0.0538         -3.0861
13.17              -0.0524         -3.0067
13.20              -0.0511         -2.9270
13.23              -0.0497         -2.8470
13.26              -0.0483         -2.7668
13.29              -0.0469         -2.6864
13.32              -0.0455         -2.6058
13.35              -0.0440         -2.5249
13.38              -0.0426         -2.4439
13.41              -0.0412         -2.3626
13.44              -0.0398         -2.2812
13.47              -0.0384         -2.1996
13.50              -0.0369         -2.1178
13.53              -0.0355         -2.0359
13.56              -0.0341         -1.9538
13.59              -0.0326         -1.8716
13.62              -0.0312         -1.7892
13.65              -0.0298         -1.7066
13.68              -0.0283         -1.6240
13.71              -0.0269         -1.5412
13.74              -0.0254         -1.4583
13.77              -0.0240         -1.3753
13.80              -0.0225         -1.2922
13.83              -0.0211         -1.2090
13.86              -0.0196         -1.1257
13.89              -0.0182         -1.0423
