hotint output data
full infinite added mass matrix
amplitude: -0.01m, period: 14s
            0            -0 -2.73451e-008            -9  5.73437e-010 -2.98867e-008  4.23554e-008
         0.05  3.73968e-007 -1.38298e-007            -9  2.94334e-009 -1.51721e-007  2.11706e-007
          0.1  1.49549e-006   -3.649e-007            -9  7.91348e-009  -4.0205e-007  5.49932e-007
         0.15  3.36345e-006 -7.13371e-007            -9  1.57958e-008 -7.89148e-007  1.05563e-006
          0.2  5.97595e-006 -1.18988e-006            -9  2.69095e-008 -1.32024e-006  1.72616e-006
         0.25  9.33037e-006  -1.8006e-006      -9.00001  4.15803e-008 -2.00139e-006  2.55768e-006
          0.3  1.34233e-005 -2.55174e-006      -9.00001  6.01399e-008 -2.83746e-006  3.54519e-006
         0.35  1.82507e-005 -3.44962e-006      -9.00001  8.29253e-008  -3.8321e-006  4.68271e-006
          0.4  2.38076e-005 -4.50069e-006      -9.00001  1.10278e-007 -4.98763e-006  5.96321e-006
         0.45  3.00884e-005  -5.7116e-006      -9.00002  1.42542e-007 -6.30504e-006  7.37878e-006
          0.5  3.70868e-005 -7.08922e-006      -9.00002  1.80067e-007 -7.78406e-006  8.92078e-006
         0.55  4.47957e-005 -8.64067e-006      -9.00002  2.23199e-007 -9.42324e-006  1.05801e-005
          0.6  5.32074e-005 -1.03734e-005      -9.00003  2.72288e-007   -1.122e-005   1.2347e-005
         0.65  6.23132e-005 -1.22951e-005      -9.00003  3.27682e-007 -1.31707e-005  1.42118e-005
          0.7   7.2104e-005 -1.44138e-005      -9.00004  3.89726e-007 -1.52706e-005  1.61645e-005
         0.75  8.25698e-005  -1.6738e-005      -9.00004   4.5876e-007 -1.75145e-005  1.81952e-005
          0.8     9.37e-005 -1.92763e-005      -9.00005  5.35122e-007  -1.9896e-005  2.02943e-005
         0.85   0.000105483 -2.20378e-005      -9.00006   6.1914e-007 -2.24086e-005  2.24524e-005
          0.9   0.000117908 -2.50318e-005      -9.00006  7.11135e-007  -2.5045e-005  2.46607e-005
         0.95    0.00013096 -2.82678e-005      -9.00007  8.11419e-007 -2.77976e-005  2.69109e-005
            1   0.000144628 -3.17557e-005      -9.00008  9.20291e-007 -3.06586e-005  2.91952e-005
         1.05   0.000158897 -3.55054e-005      -9.00009  1.03804e-006 -3.36202e-005  3.15068e-005
          1.1   0.000173752 -3.95272e-005      -9.00009  1.16493e-006 -3.66744e-005  3.38393e-005
         1.15   0.000189178 -4.38311e-005       -9.0001  1.30123e-006 -3.98136e-005  3.61875e-005
          1.2    0.00020516 -4.84276e-005      -9.00011  1.44717e-006   -4.303e-005  3.85465e-005
         1.25    0.00022168 -5.33269e-005      -9.00012  1.60296e-006 -4.63165e-005  4.09127e-005
          1.3   0.000238722 -5.85391e-005      -9.00013  1.76881e-006  -4.9666e-005   4.3283e-005
         1.35   0.000256268 -6.40743e-005      -9.00014  1.94488e-006 -5.30721e-005   4.5655e-005
          1.4     0.0002743 -6.99425e-005      -9.00015  2.13133e-006 -5.65287e-005  4.80271e-005
         1.45   0.000292799 -7.61532e-005      -9.00016  2.32827e-006 -6.00302e-005  5.03984e-005
          1.5   0.000311745 -8.27159e-005      -9.00018  2.53579e-006 -6.35714e-005  5.27683e-005
         1.55   0.000331119 -8.96396e-005      -9.00019  2.75397e-006 -6.71478e-005   5.5137e-005
          1.6   0.000350901  -9.6933e-005       -9.0002  2.98282e-006 -7.07552e-005  5.75048e-005
         1.65   0.000371069  -0.000104604      -9.00021  3.22234e-006 -7.43899e-005  5.98724e-005
          1.7   0.000391602  -0.000112662      -9.00023  3.47249e-006 -7.80488e-005  6.22408e-005
         1.75   0.000412479  -0.000121112      -9.00024   3.7332e-006 -8.17291e-005   6.4611e-005
          1.8   0.000433677  -0.000129963      -9.00025  4.00435e-006 -8.54283e-005   6.6984e-005
         1.85   0.000455173   -0.00013922      -9.00027  4.28579e-006 -8.91442e-005  6.93609e-005
          1.9   0.000476945   -0.00014889      -9.00028  4.57732e-006  -9.2875e-005  7.17425e-005
         1.95   0.000498969  -0.000158978       -9.0003  4.87871e-006 -9.66191e-005  7.41296e-005
            2   0.000521221  -0.000169489      -9.00031  5.18967e-006  -0.000100375  7.65226e-005
         2.05   0.000543677  -0.000180427      -9.00033  5.50989e-006  -0.000104141  7.89215e-005
          2.1   0.000566312  -0.000191797      -9.00034  5.83899e-006  -0.000107917  8.13262e-005
         2.15   0.000589101  -0.000203601      -9.00036  6.17656e-006    -0.0001117  8.37361e-005
          2.2    0.00061202  -0.000215843      -9.00038  6.52215e-006  -0.000115489  8.61501e-005
         2.25   0.000635043  -0.000228526      -9.00039  6.87526e-006  -0.000119284  8.85667e-005
          2.3   0.000658144  -0.000241651      -9.00041  7.23533e-006  -0.000123081  9.09841e-005
         2.35   0.000681297   -0.00025522      -9.00043  7.60177e-006  -0.000126881  9.33999e-005
          2.4   0.000704476  -0.000269234      -9.00045  7.97394e-006   -0.00013068  9.58112e-005
         2.45   0.000727655  -0.000283695      -9.00046  8.35117e-006  -0.000134476  9.82149e-005
          2.5   0.000750807  -0.000298603      -9.00048  8.73272e-006  -0.000138268   0.000100607
         2.55   0.000773906  -0.000313959       -9.0005  9.11784e-006  -0.000142052   0.000102984
          2.6   0.000796924  -0.000329761      -9.00052  9.50571e-006  -0.000145826   0.000105342
         2.65   0.000819835  -0.000346009      -9.00053  9.89548e-006  -0.000149587   0.000107675
          2.7   0.000842611  -0.000362704      -9.00055  1.02863e-005   -0.00015333   0.000109978
         2.75   0.000865226  -0.000379843      -9.00057  1.06772e-005  -0.000157053   0.000112246
          2.8   0.000887653  -0.000397425      -9.00059  1.10672e-005  -0.000160751   0.000114473
         2.85   0.000909863  -0.000415449      -9.00061  1.14554e-005   -0.00016442   0.000116654
          2.9   0.000931831  -0.000433912      -9.00063  1.18407e-005  -0.000168056   0.000118782
         2.95   0.000953528  -0.000452812      -9.00064  1.22221e-005  -0.000171653   0.000120852
            3   0.000974928  -0.000472148      -9.00066  1.25985e-005  -0.000175207   0.000122855
         3.05   0.000996003  -0.000491914      -9.00068  1.29689e-005  -0.000178712   0.000124787
          3.1    0.00101673   -0.00051211       -9.0007  1.33321e-005  -0.000182162    0.00012664
         3.15    0.00103707  -0.000532731      -9.00072  1.36869e-005  -0.000185553   0.000128407
          3.2    0.00105701  -0.000553773      -9.00074  1.40323e-005  -0.000188877   0.000130083
         3.25    0.00107652  -0.000575232      -9.00076  1.43671e-005   -0.00019213    0.00013166
          3.3    0.00109557  -0.000597104      -9.00077  1.46901e-005  -0.000195305   0.000133131
         3.35    0.00111414  -0.000619384      -9.00079  1.50002e-005  -0.000198395   0.000134491
          3.4    0.00113219  -0.000642068      -9.00081  1.52962e-005  -0.000201394   0.000135732
         3.45    0.00114971  -0.000665149      -9.00083   1.5577e-005  -0.000204297   0.000136849
          3.5    0.00116667  -0.000688621      -9.00085  1.58413e-005  -0.000207096   0.000137835
         3.55    0.00118304   -0.00071248      -9.00086  1.60882e-005  -0.000209785   0.000138685
          3.6    0.00119879  -0.000736718      -9.00088  1.63163e-005  -0.000212358   0.000139393
         3.65    0.00121391  -0.000761328       -9.0009  1.65246e-005  -0.000214809   0.000139953
          3.7    0.00122837  -0.000786303      -9.00091  1.67121e-005  -0.000217131   0.000140361
         3.75    0.00124214  -0.000811636      -9.00093  1.68776e-005  -0.000219319   0.000140612
          3.8     0.0012552  -0.000837318      -9.00095  1.70202e-005  -0.000221367   0.000140702
         3.85    0.00126753  -0.000863341      -9.00096  1.71387e-005  -0.000223269   0.000140626
          3.9    0.00127911  -0.000889696      -9.00098  1.72323e-005  -0.000225021    0.00014038
         3.95    0.00128991  -0.000916374      -9.00099  1.72999e-005  -0.000226615   0.000139962
            4     0.0012999  -0.000943364      -9.00101  1.73407e-005  -0.000228049   0.000139369
         4.05    0.00130908  -0.000970657      -9.00102  1.73538e-005  -0.000229316   0.000138597
          4.1    0.00131742  -0.000998242      -9.00103  1.73384e-005  -0.000230413   0.000137644
         4.15    0.00132489   -0.00102611      -9.00105  1.72938e-005  -0.000231335   0.000136509
          4.2    0.00133148   -0.00105424      -9.00106  1.72192e-005  -0.000232079    0.00013519
         4.25    0.00133717   -0.00108264      -9.00107  1.71139e-005   -0.00023264   0.000133685
          4.3    0.00134194   -0.00111127      -9.00108  1.69774e-005  -0.000233015   0.000131995
         4.35    0.00134577   -0.00114014      -9.00109  1.68091e-005  -0.000233202   0.000130117
          4.4    0.00134864   -0.00116923       -9.0011  1.66086e-005  -0.000233196   0.000128053
         4.45    0.00135054   -0.00119852      -9.00111  1.63753e-005  -0.000232995   0.000125802
          4.5    0.00135145     -0.001228      -9.00112  1.61091e-005  -0.000232597   0.000123364
         4.55    0.00135136   -0.00125766      -9.00113  1.58095e-005  -0.000231999   0.000120741
          4.6    0.00135025   -0.00128748      -9.00114  1.54763e-005  -0.000231199   0.000117933
         4.65     0.0013481   -0.00131744      -9.00115  1.51094e-005  -0.000230196   0.000114942
          4.7     0.0013449   -0.00134754      -9.00115  1.47088e-005  -0.000228986   0.000111768
         4.75    0.00134065   -0.00137774      -9.00116  1.42744e-005   -0.00022757   0.000108415
          4.8    0.00133532   -0.00140804      -9.00116  1.38063e-005  -0.000225944   0.000104883
         4.85     0.0013289   -0.00143843      -9.00117  1.33046e-005  -0.000224109   0.000101176
          4.9    0.00132139   -0.00146887      -9.00117  1.27695e-005  -0.000222062  9.72961e-005
         4.95    0.00131278   -0.00149936      -9.00117  1.22013e-005  -0.000219803   9.3246e-005
            5    0.00130305   -0.00152987      -9.00118  1.16004e-005  -0.000217331   8.9029e-005
         5.05     0.0012922   -0.00156039      -9.00118  1.09673e-005  -0.000214646  8.46483e-005
          5.1    0.00128022    -0.0015909      -9.00118  1.03023e-005  -0.000211746  8.01077e-005
         5.15     0.0012671   -0.00162139      -9.00118  9.60617e-006  -0.000208631  7.54109e-005
          5.2    0.00125284   -0.00165182      -9.00117  8.87946e-006  -0.000205301  7.05619e-005
         5.25    0.00123744   -0.00168218      -9.00117  8.12293e-006  -0.000201756  6.55649e-005
          5.3    0.00122088   -0.00171246      -9.00117  7.33735e-006  -0.000197995  6.04244e-005
         5.35    0.00120316   -0.00174263      -9.00116  6.52359e-006  -0.000194019  5.51448e-005
          5.4    0.00118429   -0.00177267      -9.00116  5.68257e-006  -0.000189827  4.97311e-005
         5.45    0.00116426   -0.00180257      -9.00115  4.81528e-006   -0.00018542  4.41879e-005
          5.5    0.00114306   -0.00183229      -9.00114  3.92277e-006  -0.000180799  3.85205e-005
         5.55    0.00112071   -0.00186183      -9.00114  3.00615e-006  -0.000175963   3.2734e-005
          5.6     0.0010972   -0.00189116      -9.00113   2.0666e-006  -0.000170913  2.68337e-005
         5.65    0.00107253   -0.00192025      -9.00112  1.10534e-006  -0.000165651  2.08249e-005
          5.7     0.0010467    -0.0019491       -9.0011  1.23651e-007  -0.000160176  1.47131e-005
         5.75    0.00101973   -0.00197767      -9.00109 -8.77133e-007  -0.000154489  8.50393e-006
          5.8   0.000991605   -0.00200594      -9.00108 -1.89563e-006  -0.000148593    2.203e-006
         5.85   0.000962341    -0.0020339      -9.00106 -2.93042e-006  -0.000142487 -4.18399e-006
          5.9   0.000931942   -0.00206152      -9.00105 -3.98004e-006  -0.000136174 -1.06513e-005
         5.95   0.000900414   -0.00208878      -9.00103 -5.04297e-006  -0.000129654 -1.71932e-005
            6   0.000867767   -0.00211566      -9.00101 -6.11767e-006   -0.00012293 -2.38039e-005
         6.05    0.00083401   -0.00214214      -9.00099 -7.20257e-006  -0.000116003 -3.04775e-005
          6.1   0.000799151   -0.00216819      -9.00097 -8.29605e-006  -0.000108876 -3.72082e-005
         6.15   0.000763202   -0.00219379      -9.00095  -9.3965e-006   -0.00010155 -4.39903e-005
          6.2   0.000726175   -0.00221892      -9.00093 -1.05023e-005 -9.40274e-005  -5.0818e-005
         6.25   0.000688081   -0.00224356      -9.00091 -1.16116e-005 -8.63117e-005 -5.76854e-005
          6.3   0.000648936   -0.00226769      -9.00088 -1.27229e-005 -7.84051e-005 -6.45869e-005
         6.35   0.000608752   -0.00229128      -9.00086 -1.38345e-005 -7.03108e-005 -7.15169e-005
          6.4   0.000567545   -0.00231431      -9.00083 -1.49446e-005  -6.2032e-005 -7.84696e-005
         6.45   0.000525332   -0.00233675       -9.0008 -1.60514e-005  -5.3572e-005 -8.54397e-005
          6.5   0.000482129    -0.0023586      -9.00077 -1.71534e-005 -4.49345e-005 -9.24215e-005
         6.55   0.000437954   -0.00237982      -9.00074 -1.82487e-005 -3.61233e-005 -9.94099e-005
          6.6   0.000392825   -0.00240039      -9.00071 -1.93356e-005 -2.71425e-005  -0.000106399
         6.65   0.000346763   -0.00242028      -9.00068 -2.04124e-005 -1.79963e-005  -0.000113385
          6.7   0.000299788   -0.00243949      -9.00064 -2.14775e-005  -8.6892e-006  -0.000120361
         6.75    0.00025192   -0.00245798      -9.00061 -2.25292e-005  7.74089e-007  -0.000127324
          6.8   0.000203182   -0.00247573      -9.00057 -2.35657e-005  1.03887e-005  -0.000134268
         6.85   0.000153598   -0.00249273      -9.00054 -2.45854e-005  2.01495e-005  -0.000141188
          6.9   0.000103189   -0.00250894       -9.0005 -2.55867e-005  3.00513e-005   -0.00014808
         6.95  5.19815e-005   -0.00252435      -9.00046  -2.6568e-005  4.00885e-005   -0.00015494
            7  1.79013e-017   -0.00253893      -9.00042 -2.75278e-005  5.02553e-005  -0.000161762
         7.05 -5.27295e-005   -0.00255267      -9.00038 -2.84644e-005   6.0546e-005  -0.000168544
          7.1   -0.00010618   -0.00256553      -9.00034 -2.93765e-005  7.09544e-005  -0.000175281
         7.15  -0.000160324   -0.00257751      -9.00029 -3.02624e-005  8.14742e-005  -0.000181968
          7.2  -0.000215134   -0.00258858      -9.00025 -3.11209e-005  9.20989e-005  -0.000188603
         7.25  -0.000270581   -0.00259872      -9.00021 -3.19505e-005   0.000102822  -0.000195181
          7.3  -0.000326634   -0.00260791      -9.00016 -3.27499e-005   0.000113636  -0.000201699
         7.35  -0.000383264   -0.00261612      -9.00011 -3.35178e-005   0.000124535  -0.000208154
          7.4   -0.00044044   -0.00262335      -9.00006 -3.42531e-005    0.00013551  -0.000214541
         7.45   -0.00049813   -0.00262956      -9.00002 -3.49544e-005   0.000146556  -0.000220859
          7.5  -0.000556302   -0.00263474      -8.99997 -3.56207e-005   0.000157663  -0.000227103
         7.55  -0.000614923   -0.00263887      -8.99992  -3.6251e-005   0.000168825  -0.000233271
          7.6   -0.00067396   -0.00264193      -8.99986 -3.68442e-005   0.000180033  -0.000239359
         7.65  -0.000733378   -0.00264391      -8.99981 -3.73994e-005   0.000191279  -0.000245366
          7.7  -0.000793144   -0.00264478      -8.99976 -3.79157e-005   0.000202556  -0.000251288
         7.75  -0.000853221   -0.00264452       -8.9997 -3.83923e-005   0.000213854  -0.000257123
          7.8  -0.000913575   -0.00264313      -8.99965 -3.88286e-005   0.000225165  -0.000262868
         7.85  -0.000974168   -0.00264058      -8.99959 -3.92238e-005    0.00023648  -0.000268521
          7.9   -0.00103497   -0.00263686      -8.99954 -3.95773e-005   0.000247791  -0.000274078
         7.95   -0.00109593   -0.00263195      -8.99948 -3.98886e-005   0.000259088  -0.000279539
            8   -0.00115702   -0.00262583      -8.99942 -4.01573e-005   0.000270362    -0.0002849
         8.05   -0.00121821    -0.0026185      -8.99937 -4.03829e-005   0.000281604  -0.000290159
          8.1   -0.00127945   -0.00260993      -8.99931 -4.05653e-005   0.000292804  -0.000295313
         8.15    -0.0013407   -0.00260012      -8.99925 -4.07041e-005   0.000303952  -0.000300362
          8.2   -0.00140192   -0.00258905      -8.99919 -4.07992e-005   0.000315039  -0.000305301
         8.25   -0.00146309   -0.00257671      -8.99913 -4.08505e-005   0.000326055   -0.00031013
          8.3   -0.00152415   -0.00256309      -8.99907 -4.08581e-005   0.000336989  -0.000314845
         8.35   -0.00158507   -0.00254817      -8.99901  -4.0822e-005   0.000347831  -0.000319444
          8.4    -0.0016458   -0.00253195      -8.99895 -4.07423e-005   0.000358572  -0.000323926
         8.45   -0.00170631   -0.00251441      -8.99888 -4.06193e-005   0.000369199  -0.000328286
          8.5   -0.00176655   -0.00249556      -8.99882 -4.04532e-005   0.000379703  -0.000332524
         8.55    -0.0018265   -0.00247537      -8.99876 -4.02445e-005   0.000390072  -0.000336635
          8.6   -0.00188609   -0.00245384       -8.9987 -3.99935e-005   0.000400296  -0.000340618
         8.65    -0.0019453   -0.00243097      -8.99864 -3.97007e-005   0.000410365   -0.00034447
          8.7   -0.00200408   -0.00240675      -8.99857 -3.93667e-005   0.000420266  -0.000348186
         8.75   -0.00206239   -0.00238117      -8.99851 -3.89922e-005   0.000429989  -0.000351766
          8.8    -0.0021202   -0.00235423      -8.99845 -3.85778e-005   0.000439523  -0.000355204
         8.85   -0.00217745   -0.00232594      -8.99839 -3.81242e-005   0.000448856  -0.000358498
          8.9   -0.00223411   -0.00229627      -8.99832 -3.76323e-005   0.000457979  -0.000361645
         8.95   -0.00229014   -0.00226524      -8.99826 -3.71029e-005   0.000466879   -0.00036464
            9   -0.00234549   -0.00223285       -8.9982 -3.65369e-005   0.000475545   -0.00036748
         9.05   -0.00240013   -0.00219909      -8.99814 -3.59353e-005   0.000483968   -0.00037016
          9.1   -0.00245402   -0.00216396      -8.99807 -3.52991e-005   0.000492136  -0.000372678
         9.15   -0.00250711   -0.00212747      -8.99801 -3.46293e-005   0.000500038  -0.000375028
          9.2   -0.00255936   -0.00208963      -8.99795  -3.3927e-005   0.000507664  -0.000377206
         9.25   -0.00261073   -0.00205043      -8.99789 -3.31933e-005   0.000515003  -0.000379208
          9.3   -0.00266119   -0.00200988      -8.99783 -3.24294e-005   0.000522046   -0.00038103
         9.35   -0.00271069   -0.00196799      -8.99777 -3.16365e-005   0.000528781  -0.000382666
          9.4    -0.0027592   -0.00192477      -8.99771 -3.08158e-005   0.000535201  -0.000384114
         9.45   -0.00280667   -0.00188022      -8.99765 -2.99685e-005   0.000541294  -0.000385367
          9.5   -0.00285307   -0.00183435      -8.99759  -2.9096e-005   0.000547052  -0.000386421
         9.55   -0.00289835   -0.00178718      -8.99753 -2.81995e-005   0.000552466  -0.000387273
          9.6   -0.00294249   -0.00173872      -8.99748 -2.72803e-005   0.000557526  -0.000387917
         9.65   -0.00298544   -0.00168897      -8.99742 -2.63397e-005   0.000562226  -0.000388349
          9.7   -0.00302716   -0.00163796      -8.99737 -2.53791e-005   0.000566557  -0.000388566
         9.75   -0.00306762   -0.00158569      -8.99731 -2.43999e-005   0.000570511  -0.000388563
          9.8   -0.00310678   -0.00153219      -8.99726 -2.34033e-005   0.000574082  -0.000388337
         9.85   -0.00314462   -0.00147747       -8.9972 -2.23907e-005   0.000577262  -0.000387884
          9.9   -0.00318108   -0.00142155      -8.99715 -2.13636e-005   0.000580046    -0.0003872
         9.95   -0.00321614   -0.00136444       -8.9971 -2.03232e-005   0.000582428  -0.000386283
           10   -0.00324976   -0.00130618      -8.99705 -1.92708e-005   0.000584402  -0.000385131
        10.05   -0.00328191   -0.00124677        -8.997  -1.8208e-005   0.000585963   -0.00038374
         10.1   -0.00331256   -0.00118624      -8.99696 -1.71358e-005   0.000587107  -0.000382109
