hotint output data
full infinite added mass matrix
amplitude: -0.01m, period: 5s
            0            -0  5.60813e-008            -9  1.62692e-010  -1.2054e-007 -2.32433e-008
         0.05  1.04651e-006  2.82515e-007            -9  1.05889e-009  -5.8921e-007 -1.10981e-007
          0.1  4.17777e-006  7.40973e-007            -9  3.59006e-009 -1.48436e-006  -2.7051e-007
         0.15  9.36907e-006  1.43694e-006            -9  8.74594e-009 -2.74511e-006  -4.7996e-007
          0.2  1.65793e-005  2.37305e-006            -9  1.75175e-008  -4.3038e-006 -7.16693e-007
         0.25  2.57514e-005  3.54942e-006            -9   3.0886e-008 -6.08666e-006 -9.57615e-007
          0.3  3.68125e-005  4.96424e-006            -9  4.98109e-008 -8.01488e-006 -1.17959e-006
         0.35  4.96743e-005  6.61433e-006            -9  7.52176e-008 -1.00057e-005 -1.35984e-006
          0.4  6.42338e-005  8.49557e-006            -9  1.07987e-007 -1.19733e-005 -1.47624e-006
         0.45   8.0374e-005  1.06035e-005            -9  1.48946e-007 -1.38297e-005 -1.50772e-006
          0.5  9.79642e-005  1.29339e-005            -9   1.9885e-007 -1.54864e-005 -1.43466e-006
         0.55   0.000116861  1.54836e-005            -9   2.5838e-007 -1.68555e-005 -1.23924e-006
          0.6   0.000136909  1.82509e-005            -9  3.28122e-007 -1.78511e-005 -9.05729e-007
         0.65   0.000157943   2.1236e-005            -9  4.08566e-007   -1.839e-005 -4.20798e-007
          0.7   0.000179786  2.44416e-005            -9   5.0009e-007 -1.83934e-005  2.26285e-007
         0.75   0.000202254  2.78732e-005            -9  6.02951e-007 -1.77874e-005  1.04343e-006
          0.8   0.000225154  3.15394e-005            -9  7.17278e-007 -1.65045e-005  2.03561e-006
         0.85   0.000248287  3.54521e-005            -9  8.43061e-007 -1.44842e-005  3.20477e-006
          0.9   0.000271448  3.96269e-005            -9  9.80147e-007 -1.16735e-005  4.54981e-006
         0.95   0.000294429  4.40825e-005            -9  1.12823e-006 -8.02787e-006  6.06659e-006
            1   0.000317019  4.88413e-005            -9  1.28685e-006 -3.51135e-006  7.74803e-006
         1.05   0.000339004   5.3929e-005            -9   1.4554e-006  1.90287e-006   9.5842e-006
          1.1   0.000360172  5.93741e-005            -9  1.63309e-006  8.23231e-006  1.15625e-005
         1.15   0.000380311  6.52083e-005            -9  1.81898e-006  1.54852e-005  1.36679e-005
          1.2   0.000399211  7.14652e-005      -8.99999  2.01197e-006  2.36604e-005   1.5883e-005
         1.25   0.000416667  7.81808e-005      -8.99999  2.21079e-006  3.27478e-005  1.81888e-005
          1.3   0.000432478  8.53924e-005      -8.99999  2.41403e-006  4.27285e-005  2.05642e-005
         1.35   0.000446452  9.31382e-005      -8.99999  2.62011e-006  5.35749e-005  2.29871e-005
          1.4   0.000458401   0.000101457      -8.99999  2.82733e-006  6.52517e-005  2.54342e-005
         1.45   0.000468149   0.000110387      -8.99999  3.03381e-006  7.77162e-005  2.78817e-005
          1.5   0.000475528   0.000119968      -8.99998   3.2376e-006  9.09187e-005  3.03051e-005
         1.55   0.000480385   0.000130234      -8.99998   3.4366e-006   0.000104804  3.26803e-005
          1.6   0.000482574   0.000141222      -8.99998  3.62861e-006   0.000119309  3.49831e-005
         1.65   0.000481969   0.000152965      -8.99998  3.81137e-006    0.00013437    3.719e-005
          1.7   0.000478452   0.000165493      -8.99997  3.98252e-006   0.000149916  3.92783e-005
         1.75   0.000471927   0.000178832      -8.99997  4.13966e-006   0.000165873  4.12263e-005
          1.8   0.000462308   0.000193008      -8.99997  4.28036e-006   0.000182166  4.30136e-005
         1.85   0.000449531    0.00020804      -8.99996  4.40217e-006   0.000198715  4.46212e-005
          1.9   0.000433547   0.000223945      -8.99996  4.50265e-006   0.000215441  4.60318e-005
         1.95   0.000414326   0.000240734      -8.99995  4.57938e-006   0.000232264  4.72296e-005
            2   0.000391857   0.000258416      -8.99995  4.62998e-006   0.000249101  4.82008e-005
         2.05   0.000366148   0.000276995      -8.99995  4.65215e-006   0.000265874  4.89335e-005
          2.1   0.000337228    0.00029647      -8.99994  4.64368e-006   0.000282501  4.94174e-005
         2.15   0.000305142   0.000316836      -8.99994  4.60246e-006   0.000298903  4.96445e-005
          2.2   0.000269958   0.000338084      -8.99994  4.52652e-006   0.000315002  4.96084e-005
         2.25   0.000231763   0.000360201      -8.99993  4.41405e-006   0.000330722  4.93046e-005
          2.3   0.000190662    0.00038317      -8.99993  4.26339e-006   0.000345989  4.87306e-005
         2.35   0.000146782   0.000406971      -8.99992  4.07309e-006   0.000360732  4.78854e-005
          2.4   0.000100267    0.00043158      -8.99992  3.84192e-006   0.000374881  4.67699e-005
         2.45  5.12789e-005   0.000456969      -8.99992  3.56885e-006   0.000388368  4.53862e-005
          2.5  1.21228e-018   0.000483109      -8.99991   3.2531e-006   0.000401131  4.37382e-005
         2.55 -5.33719e-005   0.000509965      -8.99991  2.89417e-006   0.000413107  4.18311e-005
          2.6  -0.000108622   0.000537504      -8.99991   2.4918e-006   0.000424239  3.96712e-005
         2.65   -0.00016552   0.000565687       -8.9999  2.04603e-006   0.000434473  3.72663e-005
          2.7  -0.000223821   0.000594475       -8.9999  1.55719e-006   0.000443755  3.46248e-005
         2.75  -0.000283266   0.000623827       -8.9999  1.02591e-006    0.00045204  3.17565e-005
          2.8  -0.000343583   0.000653701      -8.99989  4.53113e-007   0.000459281  2.86719e-005
         2.85   -0.00040449   0.000684054      -8.99989 -1.59945e-007   0.000465438  2.53823e-005
          2.9  -0.000465695    0.00071484      -8.99989 -8.11709e-007   0.000470473  2.18997e-005
         2.95  -0.000526896   0.000746016      -8.99989 -1.50031e-006   0.000474353  1.82366e-005
            3  -0.000587785   0.000777535      -8.99989 -2.22356e-006   0.000477048  1.44064e-005
         3.05  -0.000648048   0.000809354      -8.99989 -2.97896e-006   0.000478531  1.04226e-005
          3.1  -0.000707365   0.000841426      -8.99989 -3.76373e-006   0.000478781  6.29936e-006
         3.15  -0.000765417   0.000873706      -8.99989 -4.57476e-006   0.000477779  2.05112e-006
          3.2  -0.000821881   0.000906149      -8.99989 -5.40869e-006   0.000475512 -2.30736e-006
         3.25  -0.000876435   0.000938712      -8.99989 -6.26185e-006   0.000471968 -6.76102e-006
          3.3  -0.000928761   0.000971352      -8.99989 -7.13033e-006   0.000467142 -1.12946e-005
         3.35  -0.000978542    0.00100402      -8.99989 -8.00997e-006   0.000461032 -1.58927e-005
          3.4   -0.00102547    0.00103669      -8.99989 -8.89636e-006   0.000453639 -2.05396e-005
         3.45   -0.00106924    0.00106931      -8.99989  -9.7849e-006    0.00044497 -2.52197e-005
          3.5   -0.00110957    0.00110184       -8.9999 -1.06708e-005   0.000435035 -2.99171e-005
         3.55   -0.00114616    0.00113425       -8.9999  -1.1549e-005   0.000423848  -3.4616e-005
          3.6   -0.00117874    0.00116649       -8.9999 -1.24145e-005   0.000411428 -3.93005e-005
         3.65   -0.00120707    0.00119854      -8.99991 -1.32619e-005   0.000397797 -4.39545e-005
          3.7    -0.0012309    0.00123036      -8.99991  -1.4086e-005   0.000382982 -4.85621e-005
         3.75      -0.00125    0.00126192      -8.99992 -1.48812e-005   0.000367014 -5.31074e-005
          3.8   -0.00126417    0.00129319      -8.99993 -1.56421e-005   0.000349928 -5.75745e-005
         3.85   -0.00127321    0.00132414      -8.99993 -1.63631e-005   0.000331763 -6.19475e-005
          3.9   -0.00127697    0.00135475      -8.99994 -1.70388e-005   0.000312562 -6.62106e-005
         3.95    -0.0012753    0.00138498      -8.99995 -1.76637e-005   0.000292372 -7.03481e-005
            4   -0.00126808    0.00141482      -8.99996 -1.82323e-005   0.000271244 -7.43444e-005
         4.05    -0.0012552    0.00144424      -8.99996 -1.87394e-005   0.000249233  -7.8184e-005
          4.1    -0.0012366    0.00147323      -8.99997 -1.91798e-005   0.000226399 -8.18516e-005
         4.15   -0.00121222    0.00150175      -8.99998 -1.95484e-005   0.000202803 -8.53321e-005
          4.2   -0.00118206    0.00152981      -8.99999 -1.98404e-005   0.000178513 -8.86107e-005
         4.25   -0.00114611    0.00155737            -9 -2.00511e-005   0.000153598 -9.16728e-005
          4.3    -0.0011044    0.00158442      -9.00001 -2.01763e-005   0.000128131 -9.45041e-005
         4.35     -0.001057    0.00161096      -9.00002 -2.02116e-005   0.000102189 -9.70907e-005
          4.4     -0.001004    0.00163697      -9.00003 -2.01535e-005  7.58509e-005 -9.94194e-005
         4.45  -0.000945512    0.00166243      -9.00005 -1.99983e-005  4.91999e-005  -0.000101477
          4.5  -0.000881678    0.00168735      -9.00006  -1.9743e-005  2.23204e-005  -0.000103252
         4.55  -0.000812671     0.0017117      -9.00007 -1.93849e-005  -4.7004e-006  -0.000104732
          4.6  -0.000738689    0.00173549      -9.00008 -1.89217e-005 -3.17733e-005  -0.000105906
         4.65  -0.000659958    0.00175871      -9.00009 -1.83514e-005 -5.88076e-005  -0.000106766
          4.7  -0.000576728    0.00178135      -9.00011 -1.76728e-005 -8.57111e-005    -0.0001073
         4.75  -0.000489277    0.00180341      -9.00012 -1.68848e-005   -0.00011239  -0.000107503
          4.8  -0.000397904    0.00182489      -9.00013  -1.5987e-005  -0.000138752  -0.000107366
         4.85  -0.000302933    0.00184579      -9.00014 -1.49795e-005  -0.000164702  -0.000106885
          4.9  -0.000204711    0.00186611      -9.00015 -1.38629e-005  -0.000190146  -0.000106055
         4.95  -0.000103604    0.00188586      -9.00017 -1.26384e-005  -0.000214991  -0.000104873
            5 -2.11324e-017    0.00190503      -9.00018 -1.13076e-005  -0.000239144  -0.000103338
         5.05   0.000105697    0.00192363      -9.00019  -9.8729e-006  -0.000262514  -0.000101449
          5.1   0.000213066    0.00194166       -9.0002 -8.33699e-006  -0.000285013 -9.92099e-005
         5.15   0.000321671    0.00195914      -9.00021  -6.7033e-006  -0.000306552 -9.66229e-005
          5.2   0.000431062    0.00197606      -9.00022  -4.9758e-006  -0.000327048 -9.36934e-005
         5.25    0.00054078    0.00199245      -9.00023 -3.15901e-006  -0.000346418 -9.04285e-005
          5.3   0.000650353    0.00200831      -9.00024   -1.258e-006  -0.000364584 -8.68371e-005
         5.35   0.000759306    0.00202365      -9.00025  7.21585e-007  -0.000381472 -8.29299e-005
          5.4   0.000867157    0.00203848      -9.00026  2.77358e-006  -0.000397012 -7.87196e-005
         5.45   0.000973419    0.00205283      -9.00027  4.89129e-006  -0.000411137 -7.42206e-005
          5.5    0.00107761    0.00206669      -9.00028   7.0675e-006  -0.000423786 -6.94493e-005
         5.55    0.00117923    0.00208009      -9.00029  9.29452e-006  -0.000434903 -6.44239e-005
          5.6    0.00127782    0.00209305      -9.00029  1.15642e-005  -0.000444438 -5.91645e-005
         5.65    0.00137289    0.00210557       -9.0003  1.38678e-005  -0.000452345 -5.36929e-005
          5.7    0.00146398    0.00211769       -9.0003  1.61965e-005  -0.000458587 -4.80326e-005
         5.75    0.00155062     0.0021294      -9.00031  1.85408e-005   -0.00046313  -4.2209e-005
          5.8    0.00163237    0.00214075      -9.00031  2.08909e-005  -0.000465948 -3.62488e-005
         5.85     0.0017088    0.00215173      -9.00031  2.32367e-005  -0.000467022 -3.01803e-005
          5.9    0.00177949    0.00216238      -9.00031  2.55679e-005  -0.000466339 -2.40332e-005
         5.95    0.00184406    0.00217271      -9.00032   2.7874e-005  -0.000463893 -1.78385e-005
            6    0.00190211    0.00218274      -9.00032   3.0144e-005  -0.000459686  -1.1628e-005
         6.05    0.00195331    0.00219249      -9.00032  3.23672e-005  -0.000453726 -5.43484e-006
          6.1    0.00199732    0.00220198      -9.00031  3.45323e-005  -0.000446028  7.07255e-007
         6.15    0.00203384    0.00221124      -9.00031  3.66285e-005  -0.000436616  6.76392e-006
          6.2    0.00206259    0.00222027      -9.00031  3.86445e-005  -0.000425519  1.27004e-005
         6.25    0.00208333    0.00222911       -9.0003  4.05694e-005  -0.000412774  1.84816e-005
          6.3    0.00209586    0.00223776       -9.0003  4.23921e-005  -0.000398424  2.40727e-005
         6.35    0.00209998    0.00224624      -9.00029  4.41018e-005  -0.000382521  2.94388e-005
          6.4    0.00209555    0.00225458      -9.00029  4.56881e-005   -0.00036512  3.45455e-005
         6.45    0.00208245    0.00226278      -9.00028  4.71405e-005  -0.000346286  3.93593e-005
          6.5    0.00206062    0.00227087      -9.00027   4.8449e-005  -0.000326088  4.38474e-005
         6.55    0.00203001    0.00227886      -9.00026   4.9604e-005  -0.000304601  4.79782e-005
          6.6    0.00199062    0.00228676      -9.00025  5.05962e-005  -0.000281907  5.17216e-005
         6.65    0.00194248    0.00229458      -9.00024  5.14168e-005  -0.000258092  5.50491e-005
          6.7    0.00188567    0.00230233      -9.00023  5.20576e-005  -0.000233247  5.79339e-005
         6.75    0.00182029    0.00231003      -9.00021   5.2511e-005  -0.000207468  6.03515e-005
          6.8     0.0017465    0.00231767       -9.0002  5.27698e-005  -0.000180854  6.22797e-005
         6.85    0.00166448    0.00232527      -9.00019  5.28277e-005   -0.00015351  6.36989e-005
          6.9    0.00157446    0.00233283      -9.00017  5.26791e-005  -0.000125542  6.45921e-005
         6.95     0.0014767    0.00234035      -9.00016  5.23188e-005 -9.70613e-005  6.49454e-005
            7     0.0013715    0.00234783      -9.00014   5.1743e-005 -6.81791e-005  6.47479e-005
         7.05    0.00125919    0.00235527      -9.00013  5.09481e-005 -3.90102e-005   6.3992e-005
          7.1    0.00114015    0.00236267      -9.00011  4.99319e-005 -9.67056e-006  6.26737e-005
         7.15    0.00101477    0.00237002      -9.00009  4.86927e-005  1.97229e-005  6.07923e-005
          7.2   0.000883499    0.00237731      -9.00008  4.72299e-005  4.90525e-005  5.83509e-005
         7.25   0.000746791    0.00238454      -9.00006   4.5544e-005  7.82008e-005  5.53565e-005
          7.3   0.000605145     0.0023917      -9.00004  4.36361e-005    0.00010705  5.18197e-005
         7.35   0.000459084    0.00239877      -9.00003  4.15085e-005   0.000135485  4.77549e-005
          7.4   0.000309155    0.00240574      -9.00001  3.91645e-005   0.000163389  4.31806e-005
         7.45    0.00015593     0.0024126      -8.99999  3.66084e-005    0.00019065   3.8119e-005
          7.5  5.86501e-017    0.00241932      -8.99997  3.38455e-005   0.000217157  3.25962e-005
         7.55  -0.000158023     0.0024259      -8.99996   3.0882e-005   0.000242801  2.66419e-005
          7.6  -0.000317511     0.0024323      -8.99994  2.77252e-005   0.000267478  2.02897e-005
         7.65  -0.000477822    0.00243852      -8.99993  2.43834e-005   0.000291086  1.35766e-005
          7.7  -0.000638304    0.00244452      -8.99991  2.08658e-005   0.000313527  6.54298e-006
         7.75  -0.000798294    0.00245028      -8.99989  1.71826e-005   0.000334709 -7.67406e-007
          7.8  -0.000957124    0.00245579      -8.99988  1.33449e-005   0.000354543 -8.30779e-006
         7.85   -0.00111412    0.00246102      -8.99986  9.36471e-006   0.000372946 -1.60285e-005
          7.9   -0.00126862    0.00246594      -8.99985  5.25495e-006   0.000389841 -2.38774e-005
         7.95   -0.00141994    0.00247052      -8.99984  1.02931e-006   0.000405155 -3.17997e-005
            8   -0.00156743    0.00247476      -8.99982 -3.29772e-006   0.000418824 -3.97386e-005
         8.05   -0.00171042    0.00247861      -8.99981 -7.71092e-006   0.000430787 -4.76356e-005
          8.1   -0.00184828    0.00248205       -8.9998 -1.21944e-005   0.000440992 -5.54305e-005
         8.15   -0.00198036    0.00248507      -8.99979 -1.67315e-005   0.000449393  -6.3062e-005
          8.2   -0.00210607    0.00248764      -8.99978 -2.13052e-005   0.000455951 -7.04676e-005
         8.25    -0.0022248    0.00248973      -8.99978 -2.58979e-005   0.000460635 -7.75846e-005
          8.3   -0.00233597    0.00249132      -8.99977 -3.04914e-005   0.000463421 -8.43499e-005
         8.35   -0.00243905     0.0024924      -8.99976 -3.50674e-005   0.000464291 -9.07004e-005
          8.4   -0.00253352    0.00249294      -8.99976  -3.9607e-005   0.000463238 -9.65736e-005
         8.45   -0.00261887    0.00249293      -8.99975 -4.40913e-005   0.000460259  -0.000101908
          8.5   -0.00269466    0.00249234      -8.99975  -4.8501e-005   0.000455361  -0.000106643
         8.55   -0.00276046    0.00249118      -8.99975 -5.28171e-005   0.000448557  -0.000110719
          8.6   -0.00281589    0.00248941      -8.99975 -5.70203e-005   0.000439871  -0.000114079
         8.65    -0.0028606    0.00248704      -8.99975 -6.10914e-005    0.00042933  -0.000116669
          8.7   -0.00289428    0.00248405      -8.99975 -6.50115e-005   0.000416971  -0.000118436
         8.75   -0.00291667    0.00248043      -8.99976 -6.87619e-005    0.00040284  -0.000119331
          8.8   -0.00292755    0.00247619      -8.99976 -7.23243e-005   0.000386988  -0.000119308
         8.85   -0.00292674    0.00247131      -8.99977 -7.56806e-005   0.000369474  -0.000118324
          8.9   -0.00291412    0.00246581      -8.99977 -7.88136e-005   0.000350363  -0.000116341
         8.95   -0.00288961    0.00245968      -8.99978 -8.17062e-005   0.000329728  -0.000113325
            9   -0.00285317    0.00245292      -8.99979 -8.43424e-005   0.000307649  -0.000109245
         9.05   -0.00280483    0.00244555       -8.9998 -8.67067e-005   0.000284209  -0.000104077
          9.1   -0.00274464    0.00243758      -8.99981 -8.87845e-005     0.0002595 -9.78007e-005
         9.15   -0.00267274    0.00242902      -8.99982 -9.05622e-005   0.000233619 -9.04016e-005
          9.2   -0.00258927    0.00241988      -8.99984 -9.20271e-005   0.000206667 -8.18707e-005
         9.25   -0.00249447    0.00241018      -8.99985 -9.31675e-005   0.000178751 -7.22046e-005
          9.3   -0.00238859    0.00239996      -8.99987  -9.3973e-005   0.000149982 -6.14058e-005
         9.35   -0.00227195    0.00238922      -8.99988 -9.44341e-005   0.000120475 -4.94829e-005
          9.4   -0.00214491      0.002378       -8.9999 -9.45427e-005  9.03472e-005 -3.64505e-005
         9.45   -0.00200789    0.00236632      -8.99992 -9.42922e-005  5.97217e-005 -2.23297e-005
          9.5   -0.00186132    0.00235423      -8.99993 -9.36769e-005   2.8722e-005 -7.14759e-006
         9.55   -0.00170572    0.00234174      -8.99995  -9.2693e-005 -2.52543e-006  9.06226e-006
          9.6   -0.00154161    0.00232891      -8.99997 -9.13377e-005 -3.38926e-005  2.62601e-005
         9.65   -0.00136959    0.00231577      -8.99999 -8.96099e-005 -6.52505e-005  4.43997e-005
          9.7   -0.00119027    0.00230236      -9.00001   -8.751e-005 -9.64692e-005  6.34288e-005
         9.75   -0.00100431    0.00228872      -9.00003 -8.50398e-005  -0.000127419   8.3289e-005
          9.8  -0.000812387    0.00227491      -9.00005 -8.22027e-005   -0.00015797   0.000103916
         9.85  -0.000615235    0.00226097      -9.00007 -7.90037e-005  -0.000187993    0.00012524
          9.9    -0.0004136    0.00224695      -9.00009 -7.54492e-005  -0.000217362   0.000147186
         9.95  -0.000208255     0.0022329      -9.00011 -7.15473e-005  -0.000245952   0.000169674
           10  2.79731e-017    0.00221887      -9.00013 -6.73076e-005  -0.000273638   0.000192617
        10.05   0.000210348    0.00220493      -9.00015 -6.27412e-005  -0.000300301   0.000215927
         10.1   0.000421955    0.00219112      -9.00017 -5.78606e-005  -0.000325824   0.000239509
