hotint output data
full infinite added mass matrix
amplitude: -0.01m, period: 6s
            0            -0 -2.79893e-008            -9  2.03273e-009 -1.87528e-007  4.57753e-008
         0.05  8.72266e-007 -1.37068e-007            -9  1.02009e-008 -9.34812e-007  2.26605e-007
          0.1  3.48428e-006 -3.47088e-007            -9  2.66463e-008 -2.41883e-006  5.81181e-007
         0.15  7.82172e-006 -6.48617e-007            -9  5.15073e-008 -4.61969e-006  1.09931e-006
          0.2  1.38608e-005 -1.03447e-006            -9  8.49123e-008 -7.50835e-006  1.76964e-006
         0.25  2.15683e-005 -1.49973e-006            -9  1.26978e-007 -1.10466e-005  2.57973e-006
          0.3  3.09017e-005 -2.04144e-006            -9  1.77807e-007 -1.51879e-005  3.51617e-006
         0.35  4.18096e-005 -2.65845e-006            -9   2.3748e-007 -1.98778e-005  4.56468e-006
          0.4  5.42316e-005 -3.35121e-006            -9  3.06061e-007  -2.5054e-005  5.71018e-006
         0.45  6.80986e-005 -4.12149e-006            -9  3.83587e-007 -3.06476e-005  6.93685e-006
          0.5  8.33333e-005 -4.97188e-006      -9.00001   4.7007e-007 -3.65839e-005  8.22836e-006
         0.55  9.98505e-005 -5.90534e-006      -9.00001  5.65485e-007 -4.27838e-005  9.56796e-006
          0.6   0.000117557 -6.92483e-006      -9.00001  6.69772e-007 -4.91646e-005  1.09386e-005
         0.65   0.000136353  -8.0328e-006      -9.00001  7.82828e-007 -5.56412e-005  1.23231e-005
          0.7    0.00015613 -9.23079e-006      -9.00001  9.04507e-007 -6.21271e-005  1.37042e-005
         0.75   0.000176777  -1.0519e-005      -9.00001  1.03461e-006  -6.8536e-005  1.50648e-005
          0.8   0.000198172 -1.18959e-005      -9.00001  1.17287e-006 -7.47825e-005  1.63878e-005
         0.85   0.000220191 -1.33578e-005      -9.00001  1.31897e-006 -8.07835e-005  1.76568e-005
          0.9   0.000242705 -1.48988e-005      -9.00001  1.47254e-006 -8.64587e-005  1.88555e-005
         0.95   0.000265579 -1.65103e-005      -9.00001   1.6331e-006 -9.17316e-005  1.99682e-005
            1   0.000288675 -1.81808e-005      -9.00001  1.80013e-006 -9.65305e-005  2.09798e-005
         1.05   0.000311852 -1.98959e-005      -9.00001  1.97302e-006  -0.000100789   2.1876e-005
          1.1   0.000334967 -2.16383e-005      -9.00001  2.15107e-006  -0.000104447  2.26429e-005
         1.15   0.000357872 -2.33873e-005      -9.00001  2.33351e-006  -0.000107449  2.32676e-005
          1.2   0.000380423 -2.51197e-005      -9.00001  2.51946e-006   -0.00010975  2.37381e-005
         1.25   0.000402469  -2.6809e-005      -9.00001  2.70796e-006  -0.000111307  2.40431e-005
          1.3   0.000423864 -2.84264e-005      -9.00001  2.89797e-006  -0.000112087  2.41723e-005
         1.35    0.00044446 -2.99402e-005      -9.00001  3.08834e-006  -0.000112064  2.41162e-005
          1.4    0.00046411 -3.13168e-005      -9.00001  3.27783e-006  -0.000111218  2.38665e-005
         1.45   0.000482671 -3.25207e-005      -9.00001  3.46511e-006  -0.000109535  2.34154e-005
          1.5        0.0005 -3.35148e-005            -9  3.64876e-006  -0.000107009  2.27564e-005
         1.55   0.000515959 -3.42606e-005            -9  3.82728e-006  -0.000103639  2.18837e-005
          1.6   0.000530412 -3.47191e-005            -9  3.99909e-006 -9.94282e-005  2.07926e-005
         1.65   0.000543229 -3.48506e-005            -9  4.16251e-006 -9.43876e-005   1.9479e-005
          1.7   0.000554284 -3.46155e-005            -9  4.31581e-006 -8.85311e-005  1.79399e-005
         1.75   0.000563457 -3.39742e-005      -8.99999  4.45719e-006 -8.18769e-005  1.61729e-005
          1.8   0.000570634 -3.28882e-005      -8.99999   4.5848e-006 -7.44472e-005  1.41766e-005
         1.85   0.000575708 -3.13196e-005      -8.99999  4.69673e-006  -6.6267e-005  1.19502e-005
          1.9   0.000578579 -2.92319e-005      -8.99998  4.79105e-006 -5.73641e-005  9.49376e-006
         1.95   0.000579154 -2.65902e-005      -8.99998  4.86578e-006 -4.77685e-005  6.80792e-006
            2    0.00057735 -2.33615e-005      -8.99997  4.91895e-006  -3.7512e-005    3.894e-006
         2.05   0.000573092 -1.95147e-005      -8.99997  4.94856e-006  -2.6628e-005  7.53962e-007
          2.1   0.000566312 -1.50211e-005      -8.99996  4.95265e-006 -1.51506e-005 -2.60964e-006
         2.15   0.000556955 -9.85433e-006      -8.99996  4.92925e-006 -3.11522e-006  -6.1937e-006
          2.2   0.000544973 -3.99044e-006      -8.99995  4.87645e-006  9.44251e-006 -9.99459e-006
         2.25    0.00053033  2.59178e-006      -8.99995  4.79238e-006  2.24864e-005 -1.40082e-005
          2.3      0.000513  9.91093e-006      -8.99994  4.67524e-006  3.59803e-005 -1.82298e-005
         2.35   0.000492968  1.79829e-005      -8.99994   4.5233e-006  4.98877e-005 -2.26544e-005
          2.4   0.000470228  2.68208e-005      -8.99993  4.33492e-006  6.41725e-005 -2.72765e-005
         2.45   0.000444789   3.6435e-005      -8.99992  4.10858e-006  7.87981e-005 -3.20902e-005
          2.5   0.000416667  4.68334e-005      -8.99992  3.84286e-006  9.37283e-005  -3.7089e-005
         2.55   0.000385892  5.80209e-005      -8.99991  3.53649e-006   0.000108927 -4.22662e-005
          2.6   0.000352505  7.00001e-005       -8.9999  3.18833e-006   0.000124357 -4.76146e-005
         2.65   0.000316558  8.27708e-005      -8.99989  2.79741e-006   0.000139984 -5.31267e-005
          2.7   0.000278115  9.63305e-005      -8.99989  2.36293e-006   0.000155771 -5.87945e-005
         2.75   0.000237251   0.000110674      -8.99988  1.88426e-006   0.000171682 -6.46096e-005
          2.8   0.000194051   0.000125795      -8.99987  1.36099e-006   0.000187681 -7.05635e-005
         2.85   0.000148613   0.000141683      -8.99986  7.92892e-007   0.000203732 -7.66469e-005
          2.9   0.000101044   0.000158326      -8.99986  1.79952e-007   0.000219799 -8.28505e-005
         2.95  5.14637e-005   0.000175711      -8.99985 -4.77614e-007   0.000235845 -8.91642e-005
            3  3.23109e-018   0.000193823      -8.99984 -1.17936e-006   0.000251834 -9.55779e-005
         3.05 -5.32082e-005   0.000212643      -8.99983 -1.92462e-006   0.000267729  -0.000102081
          3.1  -0.000108013   0.000232153      -8.99983 -2.71247e-006   0.000283493  -0.000108661
         3.15  -0.000164256    0.00025233      -8.99982 -3.54174e-006   0.000299089  -0.000115309
          3.2  -0.000221772   0.000273153      -8.99981 -4.41102e-006   0.000314478   -0.00012201
         3.25  -0.000280387   0.000294597      -8.99981 -5.31866e-006   0.000329624  -0.000128753
          3.3  -0.000339919   0.000316637       -8.9998 -6.26272e-006   0.000344486  -0.000135525
         3.35  -0.000400178   0.000339245      -8.99979 -7.24104e-006   0.000359027  -0.000142312
          3.4  -0.000460968   0.000362393      -8.99979 -8.25121e-006   0.000373207  -0.000149099
         3.45  -0.000522089   0.000386051      -8.99978 -9.29054e-006   0.000386987  -0.000155874
          3.5  -0.000583333   0.000410189      -8.99977 -1.03561e-005   0.000400327  -0.000162619
         3.55   -0.00064449   0.000434774      -8.99977 -1.14448e-005   0.000413186  -0.000169319
          3.6  -0.000705342   0.000459775      -8.99976 -1.25532e-005   0.000425524  -0.000175959
         3.65  -0.000765673   0.000485157      -8.99976 -1.36777e-005   0.000437301  -0.000182521
          3.7  -0.000825261   0.000510886      -8.99975 -1.48144e-005   0.000448474  -0.000188988
         3.75  -0.000883883   0.000536927      -8.99975 -1.59593e-005   0.000459004  -0.000195343
          3.8  -0.000941317   0.000563244      -8.99975  -1.7108e-005   0.000468851  -0.000201566
         3.85  -0.000997337     0.0005898      -8.99975 -1.82563e-005   0.000477972   -0.00020764
          3.9   -0.00105172   0.000616558      -8.99974 -1.93994e-005   0.000486329  -0.000213544
         3.95   -0.00110425    0.00064348      -8.99974 -2.05325e-005   0.000493882   -0.00021926
            4    -0.0011547   0.000670527      -8.99974 -2.16508e-005   0.000500592  -0.000224767
         4.05   -0.00120286   0.000697661      -8.99974 -2.27491e-005   0.000506422  -0.000230046
          4.1   -0.00124851   0.000724842      -8.99974 -2.38221e-005   0.000511335  -0.000235076
         4.15   -0.00129145    0.00075203      -8.99974 -2.48647e-005   0.000515298  -0.000239836
          4.2   -0.00133148   0.000779186      -8.99974 -2.58715e-005   0.000518275  -0.000244306
         4.25   -0.00136839   0.000806267      -8.99975 -2.68369e-005   0.000520237  -0.000248464
          4.3   -0.00140201   0.000833234      -8.99975 -2.77555e-005   0.000521154  -0.000252291
         4.35   -0.00143215   0.000860045      -8.99975 -2.86218e-005   0.000520999  -0.000255766
          4.4   -0.00145863   0.000886659      -8.99976 -2.94303e-005   0.000519748  -0.000258868
         4.45    -0.0014813   0.000913034      -8.99976 -3.01754e-005    0.00051738  -0.000261578
          4.5       -0.0015   0.000939127      -8.99977 -3.08518e-005   0.000513877  -0.000263875
         4.55   -0.00151459   0.000964898      -8.99978 -3.14539e-005   0.000509222  -0.000265741
          4.6   -0.00152493   0.000990304      -8.99979 -3.19767e-005   0.000503405  -0.000267158
         4.65   -0.00153092     0.0010153      -8.99979 -3.24148e-005   0.000496416  -0.000268107
          4.7   -0.00153243    0.00103986       -8.9998 -3.27632e-005   0.000488251  -0.000268571
         4.75   -0.00152938    0.00106392      -8.99981 -3.30171e-005   0.000478907  -0.000268534
          4.8   -0.00152169    0.00108745      -8.99982 -3.31717e-005   0.000468388  -0.000267981
         4.85   -0.00150929    0.00111041      -8.99984 -3.32226e-005     0.0004567  -0.000266897
          4.9   -0.00149212    0.00113277      -8.99985 -3.31654e-005   0.000443852   -0.00026527
         4.95   -0.00147016    0.00115447      -8.99986 -3.29964e-005   0.000429859  -0.000263087
            5   -0.00144338    0.00117549      -8.99987 -3.27116e-005   0.000414737  -0.000260339
         5.05   -0.00141176    0.00119578      -8.99989 -3.23078e-005   0.000398509  -0.000257017
          5.1   -0.00137533    0.00121531       -8.9999 -3.17817e-005     0.0003812  -0.000253112
         5.15    -0.0013341    0.00123405      -8.99992 -3.11309e-005    0.00036284  -0.000248619
          5.2   -0.00128812    0.00125196      -8.99994 -3.03527e-005    0.00034346  -0.000243534
         5.25   -0.00123744    0.00126901      -8.99995 -2.94454e-005   0.000323098  -0.000237855
          5.3   -0.00118213    0.00128516      -8.99997 -2.84073e-005   0.000301795  -0.000231581
         5.35   -0.00112229     0.0013004      -8.99999 -2.72373e-005   0.000279593  -0.000224714
          5.4   -0.00105801    0.00131469      -9.00001 -2.59347e-005   0.000256541  -0.000217257
         5.45  -0.000989428    0.00132801      -9.00003 -2.44993e-005   0.000232688  -0.000209215
          5.5  -0.000916667    0.00134033      -9.00004 -2.29314e-005   0.000208088  -0.000200597
         5.55  -0.000839882    0.00135164      -9.00006 -2.12316e-005   0.000182799  -0.000191412
          5.6  -0.000759242    0.00136191      -9.00008 -1.94013e-005   0.000156878  -0.000181671
         5.65  -0.000674926    0.00137113       -9.0001 -1.74422e-005    0.00013039   -0.00017139
          5.7  -0.000587132    0.00137929      -9.00012 -1.53565e-005   0.000103397  -0.000160584
         5.75   -0.00049607    0.00138636      -9.00015 -1.31471e-005  7.59671e-005  -0.000149273
          5.8  -0.000401963    0.00139235      -9.00017 -1.08172e-005   4.8169e-005  -0.000137476
         5.85  -0.000305047    0.00139725      -9.00019 -8.37067e-006  2.00735e-005  -0.000125217
          5.9  -0.000205573    0.00140105      -9.00021 -5.81196e-006 -8.24727e-006  -0.000112521
         5.95    -0.0001038    0.00140375      -9.00023 -3.14594e-006 -3.67196e-005 -9.94161e-005
            6 -2.89116e-017    0.00140535      -9.00025 -3.78048e-007 -6.52686e-005 -8.59311e-005
         6.05   0.000105544    0.00140586      -9.00027  2.48575e-006 -9.38187e-005 -7.20978e-005
          6.1   0.000212541    0.00140529      -9.00029  5.43899e-006  -0.000122293 -5.79498e-005
         6.15   0.000320691    0.00140364      -9.00031  8.47469e-006  -0.000150616 -4.35228e-005
          6.2   0.000429684    0.00140093      -9.00033  1.15854e-005  -0.000178709  -2.8854e-005
         6.25   0.000539206    0.00139718      -9.00035  1.47632e-005  -0.000206496 -1.39827e-005
          6.3   0.000648936     0.0013924      -9.00037  1.79996e-005    -0.0002339  1.05041e-006
         6.35   0.000758545    0.00138661      -9.00039  2.12858e-005  -0.000260845  1.62029e-005
          6.4   0.000867705    0.00137984       -9.0004  2.46126e-005  -0.000287255  3.14311e-005
         6.45    0.00097608    0.00137212      -9.00042  2.79702e-005  -0.000313055    4.669e-005
          6.5    0.00108333    0.00136348      -9.00044  3.13487e-005  -0.000338172  6.19334e-005
         6.55    0.00118913    0.00135394      -9.00046  3.47377e-005  -0.000362533  7.71144e-005
          6.6    0.00129313    0.00134355      -9.00047  3.81264e-005  -0.000386069   9.2185e-005
         6.65    0.00139499    0.00133233      -9.00049  4.15038e-005  -0.000408709   0.000107097
          6.7    0.00149439    0.00132034       -9.0005  4.48588e-005  -0.000430387   0.000121801
         6.75    0.00159099    0.00130761      -9.00051  4.81798e-005  -0.000451037   0.000136248
          6.8    0.00168446    0.00129419      -9.00052  5.14551e-005  -0.000470597   0.000150389
         6.85    0.00177448    0.00128011      -9.00054   5.4673e-005  -0.000489007   0.000164175
          6.9    0.00186074    0.00126544      -9.00055  5.78214e-005  -0.000506208   0.000177558
         6.95    0.00194292    0.00125021      -9.00055  6.08885e-005  -0.000522146   0.000190488
            7    0.00202073    0.00123448      -9.00056   6.3862e-005  -0.000536769    0.00020292
         7.05    0.00209387    0.00121831      -9.00057  6.67301e-005  -0.000550028   0.000214805
          7.1    0.00216206    0.00120174      -9.00057  6.94806e-005  -0.000561877     0.0002261
         7.15    0.00222503    0.00118482      -9.00058  7.21017e-005  -0.000572273   0.000236761
          7.2    0.00228254    0.00116763      -9.00058  7.45816e-005  -0.000581179   0.000246744
         7.25    0.00233432     0.0011502      -9.00058  7.69086e-005  -0.000588558   0.000256011
          7.3    0.00238016     0.0011326      -9.00058  7.90714e-005   -0.00059438   0.000264522
         7.35    0.00241984    0.00111488      -9.00058  8.10588e-005  -0.000598617   0.000272242
          7.4    0.00245315     0.0010971      -9.00058  8.28601e-005  -0.000601246   0.000279137
         7.45    0.00247993    0.00107933      -9.00058  8.44646e-005  -0.000602247   0.000285174
          7.5        0.0025     0.0010616      -9.00057  8.58624e-005  -0.000601604   0.000290327
         7.55    0.00251322      0.001044      -9.00057  8.70437e-005  -0.000599308   0.000294569
          7.6    0.00251946    0.00102656      -9.00056  8.79994e-005  -0.000595352   0.000297878
         7.65    0.00251861    0.00100934      -9.00055  8.87208e-005  -0.000589733   0.000300234
          7.7    0.00251058   0.000992409      -9.00054  8.91998e-005  -0.000582455    0.00030162
         7.75    0.00249531   0.000975811      -9.00053  8.94288e-005  -0.000573523   0.000302026
          7.8    0.00247275   0.000959603      -9.00052  8.94011e-005   -0.00056295    0.00030144
         7.85    0.00244287   0.000943836      -9.00051  8.91103e-005  -0.000550751   0.000299857
          7.9    0.00240567   0.000928562      -9.00049   8.8551e-005  -0.000536948   0.000297277
         7.95    0.00236117    0.00091383      -9.00048  8.77183e-005  -0.000521566   0.000293699
            8     0.0023094   0.000899689      -9.00046  8.66083e-005  -0.000504635    0.00028913
         8.05    0.00225043   0.000886186      -9.00044  8.52179e-005   -0.00048619    0.00028358
          8.1    0.00218435   0.000873364      -9.00042  8.35445e-005  -0.000466271   0.000277061
         8.15    0.00211125   0.000861268       -9.0004  8.15866e-005   -0.00044492    0.00026959
          8.2    0.00203126   0.000849938      -9.00038  7.93437e-005  -0.000422187   0.000261189
         8.25    0.00194454   0.000839413      -9.00036   7.6816e-005  -0.000398124   0.000251882
          8.3    0.00185126   0.000829729      -9.00033  7.40046e-005  -0.000372788   0.000241698
         8.35    0.00175161   0.000820921      -9.00031  7.09115e-005   -0.00034624   0.000230669
          8.4     0.0016458   0.000813021      -9.00028  6.75399e-005  -0.000318547   0.000218831
         8.45    0.00153407   0.000806057      -9.00026  6.38937e-005  -0.000289776   0.000206224
          8.5    0.00141667   0.000800057      -9.00023  5.99778e-005  -0.000260001   0.000192889
         8.55    0.00129387   0.000795045       -9.0002  5.57981e-005  -0.000229299   0.000178874
          8.6    0.00116598   0.000791041      -9.00017  5.13615e-005   -0.00019775   0.000164229
         8.65    0.00103329   0.000788064      -9.00015  4.66757e-005  -0.000165435   0.000149005
          8.7   0.000896149    0.00078613      -9.00012  4.17494e-005  -0.000132443   0.000133258
         8.75   0.000754889   0.000785251      -9.00009  3.65925e-005 -9.88613e-005   0.000117046
          8.8   0.000609874   0.000785437      -9.00006  3.12154e-005 -6.47815e-005    0.00010043
         8.85   0.000461482   0.000786694      -9.00003  2.56298e-005 -3.02972e-005  8.34738e-005
          8.9   0.000310101   0.000789025            -9  1.98479e-005  4.49601e-006  6.62411e-005
         8.95   0.000156136   0.000792431      -8.99997  1.38831e-005  3.95007e-005  4.87994e-005
            9  2.77475e-017   0.000796909      -8.99994  7.74954e-006  7.46183e-005  3.12172e-005
         9.05   -0.00015788   0.000802454      -8.99991  1.46204e-006   0.000109749   1.3564e-005
          9.1   -0.00031707   0.000809055      -8.99988 -4.96367e-006   0.000144791 -4.08915e-006
         9.15  -0.000477125   0.000816702      -8.99985 -1.15112e-005   0.000179645 -2.16709e-005
          9.2  -0.000637596   0.000825379      -8.99982 -1.81633e-005   0.000214207 -3.91093e-005
         9.25  -0.000798025   0.000835068      -8.99979 -2.49024e-005   0.000248377 -5.63323e-005
          9.3  -0.000957953   0.000845749      -8.99976   -3.171e-005   0.000282053 -7.32681e-005
         9.35   -0.00111691   0.000857397      -8.99973 -3.85671e-005   0.000315136 -8.98456e-005
          9.4   -0.00127444   0.000869986      -8.99971 -4.54543e-005   0.000347524  -0.000105994
         9.45   -0.00143007   0.000883487      -8.99968 -5.23517e-005    0.00037912  -0.000121645
          9.5   -0.00158333   0.000897868      -8.99965  -5.9239e-005   0.000409827   -0.00013673
         9.55   -0.00173377   0.000913094      -8.99963 -6.60956e-005   0.000439549  -0.000151182
          9.6   -0.00188091   0.000929129      -8.99961 -7.29004e-005   0.000468195   -0.00016494
         9.65   -0.00202431   0.000945934      -8.99958 -7.96324e-005   0.000495674   -0.00017794
          9.7   -0.00216352   0.000963468      -8.99956 -8.62702e-005   0.000521897  -0.000190125
         9.75    -0.0022981   0.000981687      -8.99954 -9.27925e-005   0.000546781  -0.000201439
          9.8   -0.00242761    0.00100055      -8.99952 -9.91779e-005   0.000570244  -0.000211831
         9.85   -0.00255163       0.00102       -8.9995  -0.000105405   0.000592209   -0.00022125
          9.9   -0.00266976       0.00104      -8.99948  -0.000111452     0.0006126  -0.000229653
         9.95   -0.00278159    0.00106049      -8.99947  -0.000117299   0.000631348  -0.000236999
           10   -0.00288675    0.00108143      -8.99945  -0.000122924   0.000648387   -0.00024325
        10.05   -0.00298487    0.00110276      -8.99944  -0.000128307   0.000663657  -0.000248374
         10.1    -0.0030756    0.00112443      -8.99943  -0.000133428   0.000677099  -0.000252343
