hotint output data
full infinite added mass matrix
amplitude: -0.01m, period: 9s
            0            -0 -6.64955e-008            -9  2.09221e-009  -1.0064e-007  4.88027e-008
         0.05  5.81658e-007 -3.34076e-007            -9  1.05688e-008 -5.07239e-007   2.4417e-007
          0.1  2.32522e-006 -8.74226e-007            -9  2.78448e-008 -1.33168e-006  6.35115e-007
         0.15  5.22642e-006 -1.69418e-006            -9  5.43493e-008 -2.58641e-006  1.22117e-006
          0.2  9.27821e-006 -2.80212e-006            -9  9.05105e-008 -4.27966e-006   2.0007e-006
         0.25  1.44707e-005 -4.20725e-006      -9.00001  1.36755e-007  -6.4152e-006  2.97087e-006
          0.3  2.07912e-005 -5.91974e-006      -9.00001  1.93504e-007 -8.99249e-006  4.12775e-006
         0.35  2.82242e-005 -7.95068e-006      -9.00001  2.61173e-007 -1.20067e-005  5.46638e-006
          0.4  3.67516e-005 -1.03121e-005      -9.00001   3.4017e-007 -1.54486e-005  6.98077e-006
         0.45  4.63525e-005 -1.30168e-005      -9.00002  4.30894e-007 -1.93046e-005  8.66399e-006
          0.5  5.70034e-005 -1.60784e-005      -9.00002   5.3373e-007 -2.35573e-005  1.05083e-005
         0.55  6.86779e-005 -1.95107e-005      -9.00003  6.49046e-007 -2.81861e-005  1.25053e-005
          0.6  8.13473e-005 -2.33281e-005      -9.00003  7.77191e-007 -3.31669e-005   1.4646e-005
         0.65  9.49804e-005 -2.75451e-005      -9.00004  9.18494e-007 -3.84732e-005  1.69209e-005
          0.7   0.000109543 -3.21759e-005      -9.00004  1.07325e-006  -4.4076e-005  1.93203e-005
         0.75      0.000125 -3.72348e-005      -9.00005  1.24174e-006 -4.99448e-005  2.18341e-005
          0.8   0.000141312 -4.27351e-005      -9.00005  1.42419e-006 -5.60478e-005  2.44524e-005
         0.85   0.000158438   -4.869e-005      -9.00006  1.62079e-006 -6.23524e-005   2.7165e-005
          0.9   0.000176336 -5.51113e-005      -9.00007  1.83171e-006 -6.88256e-005  2.99619e-005
         0.95   0.000194959 -6.20101e-005      -9.00007  2.05705e-006 -7.54346e-005  3.28333e-005
            1   0.000214263 -6.93962e-005      -9.00008  2.29688e-006  -8.2147e-005  3.57698e-005
         1.05   0.000234196 -7.72777e-005      -9.00009  2.55118e-006 -8.89313e-005  3.87621e-005
          1.1   0.000254708 -8.56617e-005       -9.0001  2.81992e-006 -9.57571e-005  4.18014e-005
         1.15   0.000275747 -9.45532e-005      -9.00011  3.10297e-006  -0.000102596  4.48791e-005
          1.2   0.000297258  -0.000103956      -9.00011  3.40016e-006   -0.00010942  4.79874e-005
         1.25   0.000319185  -0.000113872      -9.00012  3.71122e-006  -0.000116204  5.11187e-005
          1.3   0.000341471    -0.0001243      -9.00013  4.03584e-006  -0.000122925  5.42657e-005
         1.35   0.000364058   -0.00013524      -9.00014  4.37361e-006  -0.000129562   5.7422e-005
          1.4   0.000386884  -0.000146687      -9.00015  4.72407e-006  -0.000136097  6.05812e-005
         1.45    0.00040989  -0.000158636      -9.00016  5.08664e-006  -0.000142511  6.37376e-005
          1.5   0.000433013  -0.000171081      -9.00017  5.46068e-006   -0.00014879  6.68855e-005
         1.55    0.00045619  -0.000184011      -9.00018  5.84547e-006  -0.000154922  7.00198e-005
          1.6   0.000479357  -0.000197418      -9.00019  6.24019e-006  -0.000160895  7.31356e-005
         1.65    0.00050245  -0.000211288       -9.0002  6.64394e-006  -0.000166701  7.62282e-005
          1.7   0.000525404   -0.00022561      -9.00021  7.05573e-006   -0.00017233   7.9293e-005
         1.75   0.000548154  -0.000240368      -9.00022  7.47449e-006  -0.000177777  8.23257e-005
          1.8   0.000570634  -0.000255547      -9.00023  7.89905e-006  -0.000183036  8.53217e-005
         1.85   0.000592778  -0.000271131      -9.00024  8.32816e-006  -0.000188103  8.82768e-005
          1.9   0.000614521  -0.000287101      -9.00025   8.7605e-006  -0.000192974  9.11865e-005
         1.95   0.000635796  -0.000303439      -9.00026  9.19465e-006  -0.000197645  9.40463e-005
            2   0.000656539  -0.000320127      -9.00027  9.62912e-006  -0.000202114  9.68516e-005
         2.05   0.000676683  -0.000337143      -9.00028  1.00623e-005  -0.000206378  9.95975e-005
          2.1   0.000696165  -0.000354467      -9.00028  1.04927e-005  -0.000210434   0.000102279
         2.15   0.000714921  -0.000372078      -9.00029  1.09184e-005  -0.000214278   0.000104891
          2.2   0.000732887  -0.000389956       -9.0003  1.13377e-005  -0.000217909   0.000107428
         2.25       0.00075  -0.000408076      -9.00031  1.17489e-005  -0.000221321   0.000109884
          2.3     0.0007662  -0.000426418      -9.00032  1.21499e-005  -0.000224511   0.000112254
         2.35   0.000781425  -0.000444958      -9.00033   1.2539e-005  -0.000227475   0.000114531
          2.4   0.000795618  -0.000463674      -9.00033   1.2914e-005  -0.000230206   0.000116708
         2.45   0.000808719  -0.000482542      -9.00034  1.32731e-005    -0.0002327   0.000118779
          2.5   0.000820673  -0.000501538      -9.00035  1.36141e-005   -0.00023495   0.000120737
         2.55   0.000831425  -0.000520639      -9.00036   1.3935e-005   -0.00023695   0.000122574
          2.6   0.000840923   -0.00053982      -9.00036  1.42337e-005  -0.000238691   0.000124284
         2.65   0.000849114  -0.000559057      -9.00037  1.45081e-005  -0.000240166   0.000125858
          2.7   0.000855951  -0.000578325      -9.00037  1.47562e-005  -0.000241366    0.00012729
         2.75   0.000861385    -0.0005976      -9.00038  1.49758e-005  -0.000242283    0.00012857
          2.8   0.000865372  -0.000616856      -9.00038   1.5165e-005  -0.000242906   0.000129691
         2.85   0.000867868  -0.000636067      -9.00038  1.53216e-005  -0.000243228   0.000130645
          2.9   0.000868834  -0.000655208      -9.00039  1.54437e-005  -0.000243237   0.000131424
         2.95   0.000868232  -0.000674254      -9.00039  1.55292e-005  -0.000242923   0.000132019
            3   0.000866025  -0.000693177      -9.00039  1.55763e-005  -0.000242277   0.000132423
         3.05   0.000862182   -0.00071195      -9.00039  1.55831e-005  -0.000241288   0.000132627
          3.1   0.000856672  -0.000730549      -9.00039  1.55478e-005  -0.000239945   0.000132623
         3.15   0.000849468  -0.000748944      -9.00039  1.54686e-005  -0.000238239   0.000132404
          3.2   0.000840545  -0.000767109      -9.00039  1.53439e-005   -0.00023616   0.000131962
         3.25   0.000829881  -0.000785016      -9.00039  1.51722e-005  -0.000233698   0.000131289
          3.3   0.000817459  -0.000802637      -9.00039  1.49518e-005  -0.000230844   0.000130379
         3.35   0.000803263  -0.000819944      -9.00038  1.46814e-005  -0.000227589   0.000129225
          3.4   0.000787279  -0.000836909      -9.00038  1.43598e-005  -0.000223925    0.00012782
         3.45     0.0007695  -0.000853503      -9.00038  1.39859e-005  -0.000219845   0.000126158
          3.5   0.000749919  -0.000869697      -9.00037  1.35584e-005  -0.000215341   0.000124235
         3.55   0.000728533  -0.000885462      -9.00036  1.30766e-005  -0.000210409   0.000122044
          3.6   0.000705342  -0.000900769      -9.00036  1.25396e-005  -0.000205043   0.000119582
         3.65   0.000680351  -0.000915589      -9.00035  1.19469e-005  -0.000199238   0.000116846
          3.7   0.000653567  -0.000929891      -9.00034  1.12978e-005  -0.000192993    0.00011383
         3.75      0.000625  -0.000943648      -9.00033   1.0592e-005  -0.000186306   0.000110534
          3.8   0.000594664  -0.000956828      -9.00032  9.82942e-006  -0.000179175   0.000106956
         3.85   0.000562576  -0.000969403      -9.00031  9.00989e-006  -0.000171601   0.000103094
          3.9   0.000528758  -0.000981342       -9.0003  8.13357e-006  -0.000163587  9.89491e-005
         3.95   0.000493232  -0.000992617      -9.00029  7.20073e-006  -0.000155136  9.45207e-005
            4   0.000456027    -0.0010032      -9.00027  6.21182e-006  -0.000146251  8.98104e-005
         4.05   0.000417173   -0.00101306      -9.00026  5.16747e-006  -0.000136938  8.48206e-005
          4.1   0.000376704   -0.00102216      -9.00024  4.06848e-006  -0.000127205  7.95542e-005
         4.15   0.000334659   -0.00103049      -9.00023  2.91581e-006  -0.000117058  7.40149e-005
          4.2   0.000291076   -0.00103801      -9.00021  1.71063e-006  -0.000106508  6.82075e-005
         4.25   0.000246002   -0.00104469      -9.00019  4.54247e-007 -9.55637e-005  6.21373e-005
          4.3   0.000199481   -0.00105051      -9.00018 -8.51817e-007 -8.42375e-005  5.58107e-005
         4.35   0.000151566   -0.00105544      -9.00016 -2.20588e-006 -7.25414e-005  4.92347e-005
          4.4   0.000102309   -0.00105946      -9.00014 -3.60607e-006 -6.04887e-005  4.24172e-005
         4.45  5.17676e-005   -0.00106254      -9.00012 -5.05035e-006 -4.80936e-005   3.5367e-005
          4.5  8.84344e-018   -0.00106465       -9.0001 -6.53649e-006 -3.53711e-005  2.80934e-005
         4.55 -5.29309e-005   -0.00106578      -9.00007 -8.06212e-006 -2.23372e-005  2.06066e-005
          4.6   -0.00010696    -0.0010659      -9.00005 -9.62465e-006 -9.00844e-006  1.29175e-005
         4.65  -0.000162019   -0.00106499      -9.00003 -1.12214e-005  4.59786e-006  5.03787e-006
          4.7  -0.000218038   -0.00106303      -9.00001 -1.28494e-005  1.84637e-005  -3.0201e-006
         4.75  -0.000274943   -0.00105999      -8.99998 -1.45056e-005  3.25706e-005 -1.12434e-005
          4.8  -0.000332659   -0.00105588      -8.99996 -1.61869e-005  4.68994e-005 -1.96184e-005
         4.85  -0.000391107   -0.00105066      -8.99993 -1.78898e-005  6.14304e-005  -2.8131e-005
          4.9  -0.000450208   -0.00104432       -8.9999 -1.96109e-005  7.61436e-005 -3.67665e-005
         4.95  -0.000509878   -0.00103685      -8.99988 -2.13466e-005  9.10184e-005 -4.55094e-005
            5  -0.000570034   -0.00102823      -8.99985  -2.3093e-005   0.000106034 -5.43441e-005
         5.05  -0.000630588   -0.00101846      -8.99982 -2.48463e-005   0.000121169 -6.32544e-005
          5.1  -0.000691452   -0.00100752      -8.99979 -2.66026e-005   0.000136401 -7.22236e-005
         5.15  -0.000752537  -0.000995409      -8.99977 -2.83576e-005    0.00015171 -8.12348e-005
          5.2  -0.000813751  -0.000982118      -8.99974 -3.01072e-005   0.000167072 -9.02707e-005
         5.25     -0.000875  -0.000967641      -8.99971 -3.18472e-005   0.000182465 -9.93138e-005
          5.3  -0.000936191  -0.000951976      -8.99968 -3.35731e-005   0.000197867  -0.000108346
         5.35  -0.000997227  -0.000935121      -8.99965 -3.52805e-005   0.000213256   -0.00011735
          5.4   -0.00105801  -0.000917074      -8.99962  -3.6965e-005   0.000228607  -0.000126308
         5.45   -0.00111845  -0.000897838      -8.99959 -3.86221e-005   0.000243899  -0.000135201
          5.5   -0.00117844  -0.000877415      -8.99956 -4.02471e-005   0.000259108  -0.000144011
         5.55   -0.00123789  -0.000855811      -8.99953 -4.18355e-005   0.000274211   -0.00015272
          5.6    -0.0012967   -0.00083303       -8.9995 -4.33827e-005   0.000289185   -0.00016131
         5.65   -0.00135476  -0.000809082      -8.99947 -4.48841e-005   0.000304007  -0.000169764
          5.7   -0.00141198  -0.000783976      -8.99944 -4.63351e-005   0.000318655  -0.000178064
         5.75   -0.00146825  -0.000757722       -8.9994 -4.77312e-005   0.000333104  -0.000186192
          5.8   -0.00152349  -0.000730334      -8.99937 -4.90678e-005   0.000347332  -0.000194132
         5.85   -0.00157758  -0.000701827      -8.99934 -5.03405e-005   0.000361317  -0.000201866
          5.9   -0.00163044  -0.000672216      -8.99931 -5.15448e-005   0.000375035  -0.000209379
         5.95   -0.00168196  -0.000641519      -8.99928 -5.26764e-005   0.000388463  -0.000216655
            6   -0.00173205  -0.000609755      -8.99925 -5.37312e-005   0.000401579  -0.000223677
         6.05   -0.00178061  -0.000576945      -8.99922 -5.47048e-005    0.00041436  -0.000230433
          6.1   -0.00182755  -0.000543112      -8.99919 -5.55933e-005   0.000426784  -0.000236907
         6.15   -0.00187277   -0.00050828      -8.99917 -5.63927e-005   0.000438829  -0.000243085
          6.2   -0.00191618  -0.000472474      -8.99914 -5.70993e-005   0.000450472  -0.000248955
         6.25   -0.00195769   -0.00043572      -8.99911 -5.77093e-005   0.000461692  -0.000254505
          6.3   -0.00199722  -0.000398048      -8.99908 -5.82193e-005   0.000472466  -0.000259722
         6.35   -0.00203467  -0.000359487      -8.99906  -5.8626e-005   0.000482774  -0.000264597
          6.4   -0.00206996  -0.000320069      -8.99903 -5.89262e-005   0.000492595   -0.00026912
         6.45   -0.00210302  -0.000279826        -8.999 -5.91169e-005   0.000501907   -0.00027328
          6.5   -0.00213375  -0.000238792      -8.99898 -5.91953e-005    0.00051069   -0.00027707
         6.55   -0.00216209  -0.000197002      -8.99896 -5.91589e-005   0.000518924  -0.000280482
          6.6   -0.00218795  -0.000154494      -8.99893 -5.90053e-005    0.00052659   -0.00028351
         6.65   -0.00221127  -0.000111306      -8.99891 -5.87323e-005   0.000533668  -0.000286148
          6.7   -0.00223197 -6.74762e-005      -8.99889 -5.83381e-005    0.00054014   -0.00028839
         6.75      -0.00225 -2.30459e-005      -8.99887 -5.78209e-005   0.000545988  -0.000290234
          6.8   -0.00226529  2.19433e-005      -8.99885 -5.71794e-005   0.000551194  -0.000291675
         6.85   -0.00227777  6.74482e-005      -8.99883 -5.64123e-005   0.000555742  -0.000292712
          6.9    -0.0022874   0.000113425      -8.99881 -5.55188e-005   0.000559616  -0.000293342
         6.95   -0.00229412   0.000159828       -8.9988  -5.4498e-005   0.000562801  -0.000293567
            7   -0.00229788   0.000206611      -8.99878 -5.33498e-005   0.000565282  -0.000293385
         7.05   -0.00229865   0.000253726      -8.99877 -5.20739e-005   0.000567045  -0.000292799
          7.1   -0.00229637   0.000301126      -8.99875 -5.06704e-005   0.000568078  -0.000291809
         7.15   -0.00229101    0.00034876      -8.99874 -4.91399e-005    0.00056837   -0.00029042
          7.2   -0.00228254   0.000396578      -8.99873 -4.74829e-005   0.000567909  -0.000288634
         7.25   -0.00227092   0.000444529      -8.99872 -4.57006e-005   0.000566685  -0.000286456
          7.3   -0.00225615    0.00049256      -8.99871 -4.37942e-005   0.000564689  -0.000283891
         7.35   -0.00223819   0.000540618      -8.99871 -4.17652e-005   0.000561915  -0.000280945
          7.4   -0.00221703    0.00058865       -8.9987 -3.96155e-005   0.000558355  -0.000277624
         7.45   -0.00219265   0.000636602       -8.9987 -3.73472e-005   0.000554003  -0.000273935
          7.5   -0.00216506   0.000684416       -8.9987 -3.49628e-005   0.000548856  -0.000269886
         7.55   -0.00213425   0.000732039       -8.9987 -3.24649e-005   0.000542909  -0.000265485
          7.6   -0.00210023   0.000779413       -8.9987 -2.98566e-005   0.000536162  -0.000260742
         7.65   -0.00206299   0.000826482       -8.9987 -2.71411e-005   0.000528612  -0.000255665
          7.7   -0.00202256   0.000873187       -8.9987  -2.4322e-005    0.00052026  -0.000250264
         7.75   -0.00197895   0.000919472      -8.99871  -2.1403e-005   0.000511109  -0.000244549
          7.8   -0.00193218   0.000965278      -8.99872 -1.83882e-005   0.000501159  -0.000238532
         7.85   -0.00188227    0.00101055      -8.99872  -1.5282e-005   0.000490417  -0.000232223
          7.9   -0.00182927    0.00105522      -8.99873 -1.20889e-005   0.000478885  -0.000225633
         7.95    -0.0017732    0.00109924      -8.99875 -8.81379e-006   0.000466572  -0.000218775
            8    -0.0017141    0.00114255      -8.99876 -5.46171e-006   0.000453485   -0.00021166
         8.05   -0.00165202    0.00118508      -8.99878 -2.03797e-006   0.000439631  -0.000204299
          8.1   -0.00158702    0.00122678      -8.99879  1.45191e-006   0.000425021  -0.000196706
         8.15   -0.00151914     0.0012676      -8.99881  5.00222e-006   0.000409667  -0.000188892
          8.2   -0.00144845    0.00130747      -8.99883  8.60701e-006    0.00039358   -0.00018087
         8.25     -0.001375    0.00134634      -8.99885  1.22602e-005   0.000376773  -0.000172652
          8.3   -0.00129887    0.00138414      -8.99888  1.59554e-005   0.000359261   -0.00016425
         8.35   -0.00122013    0.00142082       -8.9989  1.96862e-005   0.000341059  -0.000155678
          8.4   -0.00113886    0.00145634      -8.99893   2.3446e-005   0.000322184  -0.000146946
         8.45   -0.00105514    0.00149062      -8.99896   2.7228e-005   0.000302653  -0.000138067
          8.5  -0.000969057    0.00152361      -8.99899  3.10253e-005   0.000282485  -0.000129053
         8.55  -0.000880698    0.00155527      -8.99902  3.48309e-005   0.000261699  -0.000119915
          8.6   -0.00079016    0.00158553      -8.99906  3.86378e-005   0.000240317  -0.000110665
         8.65  -0.000697541    0.00161435      -8.99909  4.24386e-005   0.000218359  -0.000101314
          8.7  -0.000602944    0.00164168      -8.99913  4.62262e-005   0.000195848 -9.18728e-005
         8.75  -0.000506474    0.00166745      -8.99917  4.99932e-005   0.000172808 -8.23512e-005
          8.8  -0.000408241    0.00169163      -8.99921  5.37322e-005   0.000149263 -7.27596e-005
         8.85  -0.000308359    0.00171417      -8.99925  5.74359e-005   0.000125238 -6.31078e-005
          8.9  -0.000206944    0.00173502      -8.99929  6.10968e-005   0.000100761 -5.34051e-005
         8.95  -0.000104117    0.00175413      -8.99934  6.47075e-005   7.5857e-005 -4.36605e-005
            9  -1.6722e-017    0.00177146      -8.99939  6.82607e-005  5.05552e-005 -3.38827e-005
         9.05    0.00010528    0.00178697      -8.99943   7.1749e-005  2.48843e-005 -2.40798e-005
          9.1   0.000211595    0.00180062      -8.99948   7.5165e-005 -1.12618e-006 -1.42598e-005
         9.15   0.000318812    0.00181236      -8.99953  7.85015e-005 -2.74456e-005  -4.4304e-006
          9.2   0.000426798    0.00182216      -8.99959  8.17514e-005 -5.40428e-005  5.40115e-006
         9.25   0.000535415    0.00182999      -8.99964  8.49076e-005 -8.08857e-005  1.52278e-005
          9.3   0.000644526    0.00183581      -8.99969   8.7963e-005  -0.000107942  2.50425e-005
         9.35    0.00075399    0.00183959      -8.99975   9.0911e-005  -0.000135177  3.48388e-005
          9.4   0.000863664    0.00184129      -8.99981  9.37446e-005  -0.000162558    4.461e-005
         9.45   0.000973404     0.0018409      -8.99986  9.64574e-005  -0.000190049  5.43495e-005
          9.5    0.00108306    0.00183838      -8.99992   9.9043e-005  -0.000217616  6.40511e-005
         9.55     0.0011925    0.00183371      -8.99998   0.000101495  -0.000245222  7.37082e-005
          9.6    0.00130156    0.00182687      -9.00004   0.000103808  -0.000272831  8.33142e-005
         9.65    0.00141009    0.00181784      -9.00011   0.000105975  -0.000300406  9.28625e-005
          9.7    0.00151796    0.00180661      -9.00017   0.000107991  -0.000327908   0.000102346
         9.75      0.001625    0.00179316      -9.00023   0.000109851  -0.000355301   0.000111757
          9.8    0.00173107    0.00177748       -9.0003   0.000111549  -0.000382545   0.000121089
         9.85    0.00183602    0.00175955      -9.00036   0.000113081  -0.000409602   0.000130333
          9.9    0.00193969    0.00173939      -9.00043   0.000114442  -0.000436433   0.000139481
         9.95    0.00204194    0.00171697      -9.00049   0.000115627  -0.000462997   0.000148524
           10    0.00214263     0.0016923      -9.00056   0.000116632  -0.000489256   0.000157454
        10.05    0.00224159    0.00166538      -9.00062   0.000117454   -0.00051517   0.000166259
         10.1    0.00233868    0.00163622      -9.00069   0.000118089  -0.000540699   0.000174931
