hotint output data
notes: time (s), wave elevation (m), surge (m), heave (m), pitch (rads), flap 1 pitch (rads), flap 2 pitch (rads)
amplitude: -0.1m, period: 8s
            0            -0 -7.29431e-007            -9  1.41225e-008 -1.08009e-006  1.10888e-007
         0.05   6.5433e-006  -3.8307e-006            -9  6.14029e-008 -5.31201e-006  5.95897e-007
          0.1   2.6153e-005 -1.05608e-005      -9.00001  1.29955e-007 -1.35147e-005  1.68082e-006
         0.15  5.87687e-005 -2.15643e-005      -9.00002  1.89288e-007 -2.53485e-005  3.49512e-006
          0.2    0.00010429  -3.7404e-005      -9.00004  2.14879e-007 -4.04821e-005  6.13591e-006
         0.25   0.000162575 -5.85678e-005      -9.00006  1.87694e-007 -5.85895e-005  9.67258e-006
          0.3   0.000233445 -8.54738e-005      -9.00008  9.37305e-008 -7.93524e-005  1.41505e-005
         0.35   0.000316681  -0.000118475      -9.00011 -7.64108e-008   -0.00010246  1.95947e-005
          0.4   0.000412023  -0.000157863      -9.00014 -3.27876e-007  -0.000127606  2.60127e-005
         0.45   0.000519176  -0.000203875      -9.00018 -6.61911e-007  -0.000154492  3.33981e-005
          0.5   0.000637806  -0.000256691      -9.00022 -1.07623e-006  -0.000182829  4.17317e-005
         0.55   0.000767543   -0.00031644      -9.00026 -1.56541e-006  -0.000212339  5.09849e-005
          0.6   0.000907981  -0.000383201      -9.00031 -2.12119e-006  -0.000242759  6.11208e-005
         0.65    0.00105868  -0.000457008      -9.00036 -2.73292e-006  -0.000273838  7.20966e-005
          0.7    0.00121916  -0.000537849      -9.00041 -3.38782e-006  -0.000305342  8.38647e-005
         0.75    0.00138893  -0.000625673      -9.00047 -4.07141e-006  -0.000337054  9.63745e-005
          0.8    0.00156743  -0.000720389      -9.00053 -4.76788e-006  -0.000368774   0.000109573
         0.85     0.0017541  -0.000821872      -9.00059 -5.46036e-006   -0.00040032   0.000123408
          0.9    0.00194834  -0.000929963      -9.00066 -6.13132e-006  -0.000431529   0.000137824
         0.95    0.00214954   -0.00104447      -9.00073 -6.76281e-006  -0.000462255   0.000152769
            1    0.00235702   -0.00116519       -9.0008  -7.3368e-006  -0.000492366    0.00016819
         1.05    0.00257013   -0.00129187      -9.00087 -7.83545e-006   -0.00052175   0.000184038
          1.1    0.00278816   -0.00142425      -9.00095 -8.24133e-006  -0.000550308   0.000200262
         1.15    0.00301038   -0.00156205      -9.00103 -8.53771e-006  -0.000577956   0.000216816
          1.2    0.00323607   -0.00170496      -9.00111 -8.70869e-006  -0.000604622   0.000233654
         1.25    0.00346446   -0.00185269      -9.00119 -8.73946e-006  -0.000630246   0.000250731
          1.3    0.00369477   -0.00200489      -9.00127 -8.61642e-006  -0.000654779   0.000268006
         1.35    0.00392623   -0.00216123      -9.00135  -8.3273e-006  -0.000678177   0.000285435
          1.4    0.00415803   -0.00232136      -9.00144 -7.86131e-006  -0.000700406   0.000302979
         1.45    0.00438936   -0.00248492      -9.00152 -7.20919e-006  -0.000721438   0.000320596
          1.5     0.0046194   -0.00265156       -9.0016  -6.3633e-006  -0.000741245   0.000338246
         1.55    0.00484732    -0.0028209      -9.00169 -5.31764e-006  -0.000759807   0.000355889
          1.6     0.0050723   -0.00299256      -9.00177 -4.06791e-006  -0.000777102   0.000373484
         1.65     0.0052935   -0.00316618      -9.00185 -2.61147e-006  -0.000793111   0.000390987
          1.7     0.0055101   -0.00334137      -9.00194 -9.47382e-007  -0.000807813   0.000408356
         1.75    0.00572125   -0.00351774      -9.00202  9.23633e-007  -0.000821189   0.000425545
          1.8    0.00592613   -0.00369492       -9.0021  2.99923e-006  -0.000833217   0.000442508
         1.85    0.00612392   -0.00387251      -9.00217  5.27546e-006  -0.000843874   0.000459196
          1.9    0.00631381   -0.00405013      -9.00225  7.74683e-006  -0.000853138   0.000475558
         1.95    0.00649499   -0.00422738      -9.00232  1.04063e-005  -0.000860982   0.000491541
            2    0.00666667   -0.00440388      -9.00239  1.32456e-005  -0.000867381   0.000507091
         2.05    0.00682807   -0.00457922      -9.00246  1.62547e-005  -0.000872307   0.000522152
          2.1    0.00697842   -0.00475301      -9.00252  1.94226e-005  -0.000875734   0.000536664
         2.15    0.00711699   -0.00492486      -9.00258  2.27368e-005  -0.000877634   0.000550569
          2.2    0.00724305   -0.00509436      -9.00263  2.61836e-005  -0.000877979   0.000563805
         2.25    0.00735589   -0.00526113      -9.00268  2.97484e-005  -0.000876745   0.000576309
          2.3    0.00745484   -0.00542475      -9.00273  3.34153e-005  -0.000873907    0.00058802
         2.35    0.00753923   -0.00558483      -9.00277  3.71675e-005   -0.00086944   0.000598873
          2.4    0.00760845   -0.00574098      -9.00281   4.0987e-005  -0.000863326   0.000608805
         2.45     0.0076619   -0.00589279      -9.00284  4.48553e-005  -0.000855547   0.000617753
          2.5      0.007699   -0.00603986      -9.00286  4.87528e-005  -0.000846089   0.000625655
         2.55    0.00771922    -0.0061818      -9.00288  5.26591e-005  -0.000834941   0.000632449
          2.6    0.00772206   -0.00631822      -9.00289  5.65533e-005  -0.000822098   0.000638077
         2.65    0.00770705   -0.00644873       -9.0029  6.04137e-005  -0.000807555   0.000642479
          2.7    0.00767376   -0.00657294       -9.0029  6.42183e-005  -0.000791313   0.000645601
         2.75     0.0076218   -0.00669048      -9.00289  6.79446e-005  -0.000773376   0.000647388
          2.8    0.00755083   -0.00680095      -9.00288  7.15694e-005  -0.000753751    0.00064779
         2.85    0.00746051   -0.00690401      -9.00286  7.50698e-005  -0.000732449   0.000646759
          2.9    0.00735059   -0.00699927      -9.00283  7.84224e-005  -0.000709487   0.000644251
         2.95    0.00722084   -0.00708639      -9.00279  8.16038e-005  -0.000684881   0.000640225
            3    0.00707107   -0.00716501      -9.00274  8.45906e-005  -0.000658654   0.000634643
         3.05    0.00690114    -0.0072348      -9.00269  8.73598e-005  -0.000630832   0.000627471
          3.1    0.00671096   -0.00729542      -9.00263  8.98883e-005  -0.000601443    0.00061868
         3.15    0.00650049   -0.00734656      -9.00256  9.21537e-005  -0.000570519   0.000608244
          3.2    0.00626971   -0.00738789      -9.00248  9.41339e-005  -0.000538097   0.000596141
         3.25    0.00601868   -0.00741912      -9.00239  9.58073e-005  -0.000504216   0.000582355
          3.3    0.00574748   -0.00743995       -9.0023  9.71532e-005  -0.000468919   0.000566872
         3.35    0.00545627   -0.00745012      -9.00219  9.81516e-005  -0.000432253   0.000549685
          3.4    0.00514523   -0.00744934      -9.00208  9.87832e-005   -0.00039427   0.000530791
         3.45    0.00481459   -0.00743737      -9.00196  9.90299e-005  -0.000355023    0.00051019
          3.5    0.00446464   -0.00741396      -9.00183  9.88745e-005  -0.000314573    0.00048789
         3.55    0.00409572   -0.00737888      -9.00169  9.83011e-005  -0.000272983   0.000463901
          3.6     0.0037082   -0.00733193      -9.00154  9.72948e-005  -0.000230319    0.00043824
         3.65    0.00330253   -0.00727291      -9.00139  9.58421e-005  -0.000186654   0.000410929
          3.7    0.00287916   -0.00720163      -9.00122  9.39308e-005  -0.000142062   0.000381995
         3.75    0.00243863   -0.00711792      -9.00105  9.15503e-005 -9.66247e-005    0.00035147
          3.8     0.0019815   -0.00702164      -9.00087  8.86912e-005 -5.04239e-005   0.000319392
         3.85     0.0015084   -0.00691265      -9.00068  8.53459e-005 -3.54691e-006   0.000285804
          3.9    0.00101997   -0.00679085      -9.00048  8.15083e-005  4.39161e-005   0.000250754
         3.95   0.000516921   -0.00665613      -9.00027  7.71739e-005  9.18718e-005   0.000214298
            4  6.67659e-017   -0.00650843      -9.00006  7.23399e-005   0.000140224   0.000176494
         4.05  -0.000530008   -0.00634768      -8.99984  6.70053e-005   0.000188876   0.000137408
          4.1   -0.00107227   -0.00617386      -8.99961  6.11709e-005   0.000237725  9.71095e-005
         4.15   -0.00162593   -0.00598695      -8.99938  5.48393e-005    0.00028667  5.56741e-005
          4.2   -0.00219008   -0.00578696      -8.99913  4.80151e-005   0.000335609  1.31827e-005
         4.25   -0.00276378   -0.00557392      -8.99889  4.07045e-005   0.000384436 -3.02791e-005
          4.3   -0.00334605   -0.00534789      -8.99863   3.2916e-005   0.000433046 -7.46205e-005
         4.35   -0.00393589   -0.00510893      -8.99837  2.46596e-005   0.000481334  -0.000119746
          4.4   -0.00453225   -0.00485715      -8.99811  1.59478e-005   0.000529195  -0.000165556
         4.45   -0.00513407   -0.00459267      -8.99784  6.79453e-006   0.000576522  -0.000211947
          4.5   -0.00574025   -0.00431562      -8.99756 -2.78392e-006    0.00062321  -0.000258809
         4.55   -0.00634967   -0.00402618      -8.99728 -1.27695e-005   0.000669154   -0.00030603
          4.6   -0.00696119   -0.00372454        -8.997 -2.31421e-005    0.00071425  -0.000353495
         4.65   -0.00757363   -0.00341091      -8.99671 -3.38798e-005   0.000758395  -0.000401084
          4.7   -0.00818581   -0.00308552      -8.99642 -4.49588e-005   0.000801485  -0.000448673
         4.75   -0.00879653   -0.00274864      -8.99613 -5.63533e-005   0.000843419  -0.000496139
          4.8   -0.00940456   -0.00240054      -8.99583 -6.80358e-005   0.000884098  -0.000543351
         4.85    -0.0100087   -0.00204153      -8.99554 -7.99771e-005   0.000923423  -0.000590181
          4.9    -0.0106077   -0.00167194      -8.99524 -9.21462e-005   0.000961298  -0.000636495
         4.95    -0.0112002   -0.00129211      -8.99494  -0.000104511   0.000997627   -0.00068216
            5    -0.0117851  -0.000902413      -8.99464  -0.000117036    0.00103232  -0.000727039
         5.05    -0.0123611  -0.000503249      -8.99434  -0.000129688    0.00106528  -0.000770998
          5.1    -0.0129269 -9.50298e-005      -8.99404  -0.000142428    0.00109643  -0.000813899
         5.15    -0.0134813   0.000321808      -8.99375   -0.00015522    0.00112568  -0.000855605
          5.2     -0.014023   0.000746806      -8.99345  -0.000168023    0.00115294  -0.000895981
         5.25    -0.0145507    0.00117949      -8.99316  -0.000180797    0.00117815  -0.000934889
          5.3    -0.0150633    0.00161935      -8.99287  -0.000193501    0.00120123  -0.000972195
         5.35    -0.0155595    0.00206588      -8.99259  -0.000206094     0.0012221   -0.00100777
          5.4    -0.0160381    0.00251854      -8.99231  -0.000218531    0.00124071   -0.00104147
         5.45    -0.0164979    0.00297677      -8.99203  -0.000230771    0.00125698   -0.00107319
          5.5    -0.0169378       0.00344      -8.99176   -0.00024277    0.00127086   -0.00110278
         5.55    -0.0173565    0.00390763      -8.99149  -0.000254482     0.0012823   -0.00113013
          5.6    -0.0177531    0.00437907      -8.99124  -0.000265866    0.00129126   -0.00115512
         5.65    -0.0181262    0.00485369      -8.99098  -0.000276875    0.00129767   -0.00117764
          5.7     -0.018475    0.00533084      -8.99074  -0.000287467    0.00130152   -0.00119758
         5.75    -0.0187984    0.00580988       -8.9905  -0.000297597    0.00130276   -0.00121483
          5.8    -0.0190953    0.00629014      -8.99028  -0.000307223    0.00130136   -0.00122929
         5.85    -0.0193648    0.00677095      -8.99006  -0.000316301    0.00129729   -0.00124088
          5.9     -0.019606    0.00725161      -8.98985  -0.000324789    0.00129055    -0.0012495
         5.95     -0.019818    0.00773143      -8.98965  -0.000332647    0.00128112   -0.00125508
            6         -0.02    0.00820971      -8.98947  -0.000339835    0.00126898   -0.00125754
         6.05    -0.0201511    0.00868571      -8.98929  -0.000346313    0.00125413   -0.00125683
          6.1    -0.0202707    0.00915872      -8.98913  -0.000352044    0.00123657   -0.00125287
         6.15    -0.0203579    0.00962801      -8.98898  -0.000356993    0.00121631   -0.00124563
          6.2    -0.0204122     0.0100928      -8.98884  -0.000361124    0.00119336   -0.00123506
         6.25     -0.020433     0.0105525      -8.98872  -0.000364405    0.00116773   -0.00122112
          6.3    -0.0204198     0.0110062      -8.98861  -0.000366805    0.00113945    -0.0012038
         6.35     -0.020372     0.0114532      -8.98851  -0.000368295    0.00110854   -0.00118308
          6.4    -0.0202892     0.0118928      -8.98843  -0.000368849    0.00107504   -0.00115894
         6.45    -0.0201711     0.0123242      -8.98836  -0.000368443    0.00103897    -0.0011314
          6.5    -0.0200174     0.0127467      -8.98831  -0.000367054    0.00100039   -0.00110045
         6.55    -0.0198278     0.0131595      -8.98828  -0.000364663   0.000959342   -0.00106612
          6.6    -0.0196021      0.013562      -8.98826  -0.000361253   0.000915872   -0.00102844
         6.65    -0.0193403     0.0139533      -8.98826  -0.000356809   0.000870041  -0.000987444
          6.7    -0.0190423     0.0143328      -8.98827   -0.00035132   0.000821912  -0.000943174
         6.75    -0.0187081     0.0146997       -8.9883  -0.000344778    0.00077155  -0.000895686
          6.8    -0.0183377     0.0150534      -8.98835  -0.000337175   0.000719027  -0.000845042
         6.85    -0.0179314     0.0153931      -8.98842  -0.000328509   0.000664421  -0.000791313
          6.9    -0.0174893     0.0157182       -8.9885   -0.00031878   0.000607811  -0.000734578
         6.95    -0.0170118     0.0160279      -8.98861  -0.000307991   0.000549284  -0.000674924
            7    -0.0164992     0.0163217      -8.98873  -0.000296148   0.000488928  -0.000612447
         7.05    -0.0159518     0.0165989      -8.98887  -0.000283258   0.000426839  -0.000547249
          7.1    -0.0153703     0.0168589      -8.98902  -0.000269336   0.000363114  -0.000479439
         7.15    -0.0147551      0.017101       -8.9892  -0.000254394   0.000297855  -0.000409136
          7.2    -0.0141068     0.0173248       -8.9894  -0.000238452   0.000231167  -0.000336464
         7.25    -0.0134263     0.0175296      -8.98961   -0.00022153    0.00016316  -0.000261553
          7.3    -0.0127141      0.017715      -8.98984  -0.000203653  9.39463e-005  -0.000184542
         7.35    -0.0119712     0.0178803      -8.99009  -0.000184847   2.3642e-005  -0.000105572
          7.4    -0.0111984     0.0180252      -8.99036  -0.000165142 -4.76344e-005 -2.47938e-005
         7.45    -0.0103967     0.0181491      -8.99064   -0.00014457  -0.000119761  5.76388e-005
          7.5   -0.00956709     0.0182517      -8.99095  -0.000123168  -0.000192614   0.000141566
         7.55   -0.00871061     0.0183326      -8.99127  -0.000100974  -0.000266067   0.000226824
          7.6   -0.00782843     0.0183913      -8.99161  -7.8028e-005  -0.000339991   0.000313243
         7.65   -0.00692173     0.0184276      -8.99197 -5.43738e-005  -0.000414256   0.000400652
          7.7   -0.00599176     0.0184411      -8.99234 -3.00574e-005   -0.00048873   0.000488873
         7.75   -0.00503983     0.0184316      -8.99274 -5.12696e-006   -0.00056328   0.000577728
          7.8    -0.0040673     0.0183988      -8.99314  2.03669e-005   -0.00063777   0.000667034
         7.85   -0.00307556     0.0183427      -8.99357  4.63715e-005  -0.000712066   0.000756607
          7.9   -0.00206609     0.0182629      -8.99401   7.2832e-005  -0.000786032    0.00084626
         7.95   -0.00104039     0.0181594      -8.99446  9.96918e-005  -0.000859532   0.000935804
            8 -4.32857e-016     0.0180321      -8.99494   0.000126892  -0.000932429    0.00102505
         8.05    0.00105347      0.017881      -8.99542   0.000154374   -0.00100459    0.00111381
          8.1     0.0021184      0.017706      -8.99592   0.000182075   -0.00107587    0.00120189
         8.15     0.0031931     0.0175073      -8.99643   0.000209932   -0.00114614     0.0012891
          8.2    0.00427588     0.0172848      -8.99696   0.000237881   -0.00121527    0.00137525
         8.25    0.00536498     0.0170387      -8.99749   0.000265857   -0.00128312    0.00146016
          8.3    0.00645866     0.0167692      -8.99804   0.000293795   -0.00134955    0.00154363
         8.35    0.00755509     0.0164764       -8.9986   0.000321627   -0.00141445    0.00162549
          8.4    0.00865248     0.0161607      -8.99917   0.000349286   -0.00147767    0.00170554
         8.45    0.00974896     0.0158223      -8.99975   0.000376705   -0.00153909    0.00178361
          8.5     0.0108427     0.0154615      -9.00034   0.000403816   -0.00159859    0.00185952
         8.55     0.0119318     0.0150788      -9.00094   0.000430551   -0.00165604    0.00193311
          8.6     0.0130144     0.0146744      -9.00154   0.000456843   -0.00171133    0.00200419
         8.65     0.0140886      0.014249      -9.00215   0.000482625   -0.00176433    0.00207261
          8.7     0.0151525      0.013803      -9.00277    0.00050783   -0.00181493    0.00213821
         8.75     0.0162041      0.013337      -9.00339   0.000532392   -0.00186302    0.00220083
          8.8     0.0172417     0.0128514      -9.00401   0.000556247   -0.00190849    0.00226032
         8.85     0.0182633      0.012347      -9.00464   0.000579329   -0.00195123    0.00231654
          8.9      0.019267     0.0118245      -9.00527   0.000601578   -0.00199116    0.00236936
         8.95     0.0202509     0.0112844       -9.0059    0.00062293   -0.00202816    0.00241863
            9     0.0212132     0.0107277      -9.00654   0.000643327   -0.00206215    0.00246425
         9.05     0.0221521     0.0101549      -9.00717   0.000662711   -0.00209305    0.00250608
          9.1     0.0230656    0.00956705       -9.0078   0.000681025   -0.00212076    0.00254402
         9.15     0.0239522     0.0089649      -9.00842   0.000698215   -0.00214521    0.00257795
          9.2     0.0248099    0.00834934      -9.00905   0.000714229   -0.00216633    0.00260779
         9.25      0.025637     0.0077213      -9.00967   0.000729017   -0.00218404    0.00263344
          9.3     0.0264318    0.00708172      -9.01028   0.000742531   -0.00219829    0.00265482
         9.35     0.0271928    0.00643159      -9.01089   0.000754727   -0.00220901    0.00267184
          9.4     0.0279182    0.00577191      -9.01149   0.000765562   -0.00221615    0.00268443
         9.45     0.0286065    0.00510373      -9.01208   0.000774996   -0.00221968    0.00269254
          9.5     0.0292562    0.00442809      -9.01266   0.000782993   -0.00221953    0.00269609
         9.55     0.0298658    0.00374608      -9.01323   0.000789517   -0.00221569    0.00269505
          9.6     0.0304338    0.00305881      -9.01379   0.000794538   -0.00220811    0.00268936
         9.65      0.030959    0.00236739      -9.01434   0.000798027   -0.00219678    0.00267898
          9.7       0.03144    0.00167298      -9.01488   0.000799959   -0.00218168    0.00266389
         9.75     0.0318755   0.000976731       -9.0154   0.000800312   -0.00216279    0.00264405
          9.8     0.0322645   0.000279807       -9.0159   0.000799065   -0.00214012    0.00261944
         9.85     0.0326057  -0.000416609      -9.01639   0.000796204   -0.00211367    0.00259005
          9.9     0.0328983   -0.00111133      -9.01687   0.000791714   -0.00208343    0.00255588
         9.95     0.0331411   -0.00180315      -9.01732   0.000785586   -0.00204943    0.00251691
           10     0.0333333   -0.00249089      -9.01776   0.000777813   -0.00201169    0.00247316
        10.05     0.0334742   -0.00317333      -9.01817   0.000768392   -0.00197023    0.00242463
