hotint output data
notes: time (s), wave elevation (m), surge (m), heave (m), pitch (rads), flap 1 pitch (rads), flap 2 pitch (rads)
amplitude: -0.1m, period: 7.25s
            0            -0 -7.15048e-007            -9  9.11496e-009 -1.22277e-006 -1.08218e-007
         0.05  7.21979e-006 -3.80428e-006            -9  3.22965e-008 -5.98055e-006 -4.99848e-007
          0.1  2.88521e-005 -1.06385e-005      -9.00001  4.10373e-008 -1.51046e-005 -1.16911e-006
         0.15  6.48156e-005 -2.20124e-005      -9.00001 -9.09895e-009 -2.80917e-005 -1.98781e-006
          0.2   0.000114975 -3.86094e-005      -9.00002 -1.54376e-007 -4.44615e-005 -2.85885e-006
         0.25   0.000179142 -6.10114e-005      -9.00003 -4.23512e-007 -6.37524e-005 -3.71054e-006
          0.3   0.000257075 -8.97053e-005      -9.00004 -8.38281e-007  -8.5523e-005 -4.49262e-006
         0.35   0.000348479   -0.00012509      -9.00005 -1.41408e-006  -0.000109352 -5.17247e-006
          0.4   0.000453009  -0.000167482      -9.00007 -2.16038e-006  -0.000134834 -5.73098e-006
         0.45    0.00057027  -0.000217122      -9.00009 -3.08122e-006  -0.000161581    -6.16e-006
          0.5   0.000699815  -0.000274177      -9.00011 -4.17568e-006  -0.000189227 -6.46072e-006
         0.55   0.000841152  -0.000338742      -9.00013 -5.43837e-006  -0.000217426 -6.64163e-006
          0.6   0.000993739  -0.000410849      -9.00015 -6.85992e-006  -0.000245856  -6.7169e-006
         0.65    0.00115699  -0.000490468      -9.00017 -8.42744e-006  -0.000274217 -6.70488e-006
          0.7    0.00133028  -0.000577508       -9.0002  -1.0125e-005  -0.000302233 -6.62698e-006
         0.75    0.00151294  -0.000671829      -9.00023 -1.19342e-005  -0.000329655 -6.50702e-006
          0.8    0.00170425  -0.000773237      -9.00026 -1.38343e-005  -0.000356256 -6.37026e-006
         0.85    0.00190346  -0.000881494      -9.00029 -1.58034e-005  -0.000381838 -6.24261e-006
          0.9     0.0021098  -0.000996321      -9.00032  -1.7818e-005  -0.000406222 -6.15015e-006
         0.95    0.00232244    -0.0011174      -9.00035  -1.9854e-005  -0.000429253 -6.11878e-006
            1    0.00254054   -0.00124438      -9.00039 -2.18869e-005    -0.0004508 -6.17395e-006
         1.05    0.00276322   -0.00137689      -9.00042 -2.38922e-005   -0.00047075 -6.34056e-006
          1.1    0.00298957    -0.0015145      -9.00046 -2.58456e-005  -0.000489009 -6.64283e-006
         1.15    0.00321867   -0.00165681      -9.00049 -2.77234e-005  -0.000505501 -7.10433e-006
          1.2    0.00344957   -0.00180335      -9.00053 -2.95031e-005  -0.000520165 -7.74804e-006
         1.25     0.0036813   -0.00195367      -9.00057  -3.1163e-005  -0.000532953 -8.59641e-006
          1.3    0.00391289   -0.00210728      -9.00061 -3.26829e-005  -0.000543829 -9.67157e-006
         1.35    0.00414333   -0.00226371      -9.00065 -3.40441e-005  -0.000552768 -1.09954e-005
          1.4    0.00437163   -0.00242245      -9.00068 -3.52296e-005  -0.000559751 -1.25899e-005
         1.45    0.00459677   -0.00258302      -9.00072 -3.62241e-005  -0.000564765  -1.4477e-005
          1.5    0.00481775    -0.0027449      -9.00076 -3.70144e-005  -0.000567806 -1.66792e-005
         1.55    0.00503354    -0.0029076       -9.0008 -3.75889e-005  -0.000568868 -1.92195e-005
          1.6    0.00524315   -0.00307061      -9.00083 -3.79383e-005  -0.000567952 -2.21214e-005
         1.65    0.00544555   -0.00323343      -9.00087 -3.80551e-005  -0.000565058 -2.54096e-005
          1.7    0.00563975   -0.00339556       -9.0009 -3.79337e-005  -0.000560186 -2.91094e-005
         1.75    0.00582478   -0.00355651      -9.00094 -3.75708e-005   -0.00055334 -3.32473e-005
          1.8    0.00599965   -0.00371578      -9.00097 -3.69646e-005  -0.000544521 -3.78508e-005
         1.85    0.00616341    -0.0038729        -9.001 -3.61155e-005  -0.000533729 -4.29484e-005
          1.9    0.00631513   -0.00402737      -9.00103 -3.50256e-005  -0.000520968 -4.85697e-005
         1.95     0.0064539   -0.00417873      -9.00105 -3.36989e-005  -0.000506237 -5.47452e-005
            2    0.00657884    -0.0043265      -9.00108 -3.21408e-005   -0.00048954 -6.15062e-005
         2.05     0.0066891   -0.00447022       -9.0011 -3.03586e-005   -0.00047088 -6.88847e-005
          2.1    0.00678384   -0.00460943      -9.00112 -2.83611e-005  -0.000450261 -7.69132e-005
         2.15    0.00686228   -0.00474369      -9.00113 -2.61587e-005  -0.000427689 -8.56243e-005
          2.2    0.00692368   -0.00487255      -9.00115 -2.37629e-005  -0.000403174 -9.50507e-005
         2.25    0.00696733   -0.00499558      -9.00116  -2.1187e-005  -0.000376728  -0.000105225
          2.3    0.00699254   -0.00511234      -9.00116 -1.84453e-005  -0.000348366  -0.000116178
         2.35    0.00699871   -0.00522243      -9.00116 -1.55532e-005  -0.000318107  -0.000127941
          2.4    0.00698525   -0.00532544      -9.00116 -1.25274e-005  -0.000285976  -0.000140544
         2.45    0.00695165   -0.00542095      -9.00116 -9.38567e-006  -0.000252002  -0.000154015
          2.5    0.00689741   -0.00550859      -9.00115 -6.14677e-006  -0.000216219  -0.000168379
         2.55    0.00682212   -0.00558798      -9.00114 -2.83033e-006  -0.000178669  -0.000183661
          2.6    0.00672541   -0.00565876      -9.00112  5.43207e-007  -0.000139396  -0.000199883
         2.65    0.00660696   -0.00572056       -9.0011  3.95263e-006 -9.84511e-005  -0.000217062
          2.7    0.00646653   -0.00577306      -9.00107  7.37612e-006 -5.58905e-005  -0.000235215
         2.75    0.00630391   -0.00581593      -9.00104  1.07913e-005 -1.17753e-005  -0.000254353
          2.8    0.00611898   -0.00584886      -9.00101  1.41754e-005   3.3828e-005  -0.000274485
         2.85    0.00591165   -0.00587156      -9.00097  1.75052e-005  8.08483e-005  -0.000295615
          2.9    0.00568192   -0.00588375      -9.00092  2.07575e-005    0.00012921  -0.000317743
         2.95    0.00542985   -0.00588518      -9.00087  2.39088e-005   0.000178831  -0.000340867
            3    0.00515554   -0.00587561      -9.00082  2.69356e-005   0.000229629  -0.000364977
         3.05    0.00485918   -0.00585481      -9.00076  2.98149e-005   0.000281513  -0.000390062
          3.1    0.00454101   -0.00582259      -9.00069  3.25235e-005   0.000334391  -0.000416105
         3.15    0.00420135   -0.00577876      -9.00062  3.50388e-005   0.000388165  -0.000443083
          3.2    0.00384056   -0.00572315      -9.00054  3.73389e-005   0.000442736  -0.000470972
         3.25     0.0034591   -0.00565563      -9.00046  3.94021e-005   0.000497998   -0.00049974
          3.3    0.00305746   -0.00557606      -9.00038   4.1208e-005   0.000553843  -0.000529353
         3.35     0.0026362   -0.00548436      -9.00029  4.27365e-005   0.000610159   -0.00055977
          3.4    0.00219597   -0.00538045      -9.00019  4.39689e-005   0.000666832  -0.000590947
         3.45    0.00173745   -0.00526425      -9.00009  4.48872e-005   0.000723741  -0.000622836
          3.5    0.00126139   -0.00513574      -8.99998   4.5475e-005   0.000780766  -0.000655383
         3.55   0.000768607   -0.00499491      -8.99987  4.57168e-005   0.000837779   -0.00068853
          3.6   0.000259974   -0.00484175      -8.99975  4.55985e-005   0.000894653  -0.000722217
         3.65  -0.000263584   -0.00467631      -8.99963  4.51074e-005   0.000951255  -0.000756377
          3.7  -0.000801083   -0.00449863      -8.99951  4.42325e-005    0.00100745  -0.000790938
         3.75   -0.00135149    -0.0043088      -8.99938  4.29642e-005    0.00106311  -0.000825828
          3.8   -0.00191371   -0.00410692      -8.99925  4.12943e-005    0.00111808  -0.000860967
         3.85   -0.00248661   -0.00389311      -8.99911  3.92166e-005    0.00117223  -0.000896272
          3.9   -0.00306901   -0.00366753      -8.99897  3.67265e-005    0.00122542  -0.000931658
         3.95   -0.00365968   -0.00343034      -8.99882  3.38211e-005     0.0012775  -0.000967035
            4   -0.00425735   -0.00318175      -8.99868  3.04994e-005    0.00132834   -0.00100231
         4.05   -0.00486071   -0.00292199      -8.99852  2.67623e-005    0.00137778   -0.00103738
          4.1   -0.00546842    -0.0026513      -8.99837  2.26125e-005    0.00142569   -0.00107215
         4.15    -0.0060791   -0.00236996      -8.99821  1.80546e-005    0.00147194   -0.00110652
          4.2   -0.00669133   -0.00207826      -8.99805  1.30954e-005    0.00151637   -0.00114037
         4.25   -0.00730368   -0.00177655      -8.99789  7.74329e-006    0.00155886    -0.0011736
          4.3   -0.00791469   -0.00146515      -8.99773  2.00899e-006    0.00159926    -0.0012061
         4.35   -0.00852289   -0.00114445      -8.99757 -4.09493e-006    0.00163747   -0.00123775
          4.4   -0.00912676  -0.000814835       -8.9974 -1.05538e-005    0.00167333   -0.00126844
         4.45    -0.0097248  -0.000476735      -8.99723 -1.73511e-005    0.00170674   -0.00129804
          4.5    -0.0103155  -0.000130588      -8.99707 -2.44682e-005    0.00173758   -0.00132644
         4.55    -0.0108973   0.000223142       -8.9969 -3.18844e-005    0.00176573   -0.00135352
          4.6    -0.0114687    0.00058397      -8.99673 -3.95773e-005    0.00179109   -0.00137916
         4.65    -0.0120281    0.00095139      -8.99657 -4.75224e-005    0.00181355   -0.00140323
          4.7    -0.0125741    0.00132488       -8.9964 -5.56936e-005    0.00183302   -0.00142562
         4.75    -0.0131051    0.00170389      -8.99624 -6.40627e-005    0.00184939    -0.0014462
          4.8    -0.0136196    0.00208785      -8.99608    -7.26e-005     0.0018626   -0.00146485
         4.85     -0.014116     0.0024762      -8.99592 -8.12743e-005    0.00187255   -0.00148146
          4.9    -0.0145931    0.00286833      -8.99576 -9.00525e-005    0.00187917   -0.00149591
         4.95    -0.0150492    0.00326364      -8.99561 -9.89005e-005     0.0018824   -0.00150808
            5    -0.0154829    0.00366149      -8.99545  -0.000107782    0.00188217   -0.00151786
         5.05     -0.015893    0.00406124      -8.99531  -0.000116662    0.00187844   -0.00152514
          5.1     -0.016278    0.00446225      -8.99516    -0.0001255    0.00187115   -0.00152982
         5.15    -0.0166366    0.00486384      -8.99503  -0.000134259    0.00186027    -0.0015318
          5.2    -0.0169675    0.00526535      -8.99489  -0.000142898    0.00184576   -0.00153097
         5.25    -0.0172695    0.00566609      -8.99476  -0.000151378     0.0018276   -0.00152724
          5.3    -0.0175414    0.00606536      -8.99464  -0.000159656    0.00180579   -0.00152052
         5.35    -0.0177821    0.00646247      -8.99452  -0.000167693     0.0017803   -0.00151075
          5.4    -0.0179905    0.00685671      -8.99441  -0.000175446    0.00175115   -0.00149782
         5.45    -0.0181656    0.00724738      -8.99431  -0.000182873    0.00171834   -0.00148169
          5.5    -0.0183064    0.00763375      -8.99421  -0.000189933    0.00168189   -0.00146228
         5.55    -0.0184121    0.00801511      -8.99412  -0.000196584    0.00164184   -0.00143953
          5.6    -0.0184819    0.00839075      -8.99404  -0.000202786    0.00159821   -0.00141342
         5.65    -0.0185149    0.00875994      -8.99397  -0.000208498    0.00155105   -0.00138388
          5.7    -0.0185105    0.00912199       -8.9939  -0.000213679    0.00150042    -0.0013509
         5.75     -0.018468    0.00947617      -8.99385  -0.000218292    0.00144638   -0.00131445
          5.8    -0.0183871    0.00982179       -8.9938  -0.000222299    0.00138899   -0.00127452
         5.85    -0.0182672     0.0101581      -8.99377  -0.000225662    0.00132834   -0.00123111
          5.9    -0.0181079     0.0104845      -8.99374  -0.000228346    0.00126451   -0.00118422
         5.95     -0.017909     0.0108003      -8.99372  -0.000230319    0.00119759   -0.00113388
            6    -0.0176702     0.0111047      -8.99372  -0.000231547     0.0011277   -0.00108011
         6.05    -0.0173916     0.0113972      -8.99372  -0.000232001    0.00105492   -0.00102295
          6.1    -0.0170729     0.0116771      -8.99373  -0.000231654   0.000979394  -0.000962455
         6.15    -0.0167144     0.0119437      -8.99376  -0.000230479   0.000901228   -0.00089868
          6.2    -0.0163161     0.0121965       -8.9938  -0.000228452   0.000820557  -0.000831697
         6.25    -0.0158784     0.0124348      -8.99384  -0.000225554   0.000737515  -0.000761588
          6.3    -0.0154015     0.0126581       -8.9939  -0.000221766   0.000652246  -0.000688448
         6.35    -0.0148858     0.0128658      -8.99397  -0.000217071   0.000564898  -0.000612378
          6.4    -0.0143319     0.0130574      -8.99406  -0.000211458   0.000475626  -0.000533493
         6.45    -0.0137405     0.0132323      -8.99415  -0.000204917   0.000384589  -0.000451917
          6.5    -0.0131121     0.0133901      -8.99426  -0.000197441   0.000291953  -0.000367785
         6.55    -0.0124476     0.0135303      -8.99437  -0.000189026   0.000197888  -0.000281239
          6.6    -0.0117479     0.0136524       -8.9945  -0.000179673   0.000102569  -0.000192436
         6.65    -0.0110139     0.0137561      -8.99464  -0.000169384  6.17654e-006  -0.000101536
          6.7    -0.0102468     0.0138409       -8.9948  -0.000158166 -9.11067e-005 -8.71249e-006
         6.75    -0.0094475     0.0139065      -8.99496  -0.000146027  -0.000189093  8.58546e-005
          6.8   -0.00861741     0.0139526      -8.99514  -0.000132982  -0.000287592   0.000181977
         6.85   -0.00775778     0.0139789      -8.99532  -0.000119046  -0.000386409   0.000279458
          6.9   -0.00687001      0.013985      -8.99552   -0.00010424  -0.000485348   0.000378095
         6.95   -0.00595556     0.0139709      -8.99573 -8.85855e-005  -0.000584211   0.000477678
            7   -0.00501598     0.0139362      -8.99595 -7.21105e-005  -0.000682798   0.000577991
         7.05   -0.00405287     0.0138808      -8.99619 -5.48443e-005  -0.000780907   0.000678813
          7.1   -0.00306794     0.0138047      -8.99643 -3.68202e-005  -0.000878335   0.000779916
         7.15   -0.00206292     0.0137077      -8.99668 -1.80743e-005  -0.000974881    0.00088107
          7.2   -0.00103965     0.0135897      -8.99694  1.35368e-006   -0.00107034   0.000982041
         7.25 -3.70812e-016     0.0134508      -8.99722  2.14212e-005   -0.00116451    0.00108259
          7.3    0.00105409      0.013291       -8.9975  4.20828e-005   -0.00125719    0.00118248
         7.35    0.00212063     0.0131104      -8.99779  6.32899e-005   -0.00134818    0.00128146
          7.4    0.00319757     0.0129091      -8.99809  8.49914e-005   -0.00143728    0.00137929
         7.45    0.00428282     0.0126872      -8.99839   0.000107133    -0.0015243    0.00147573
          7.5    0.00537426     0.0124449      -8.99871    0.00012966   -0.00160903    0.00157053
         7.55    0.00646971     0.0121824      -8.99903   0.000152511    -0.0016913    0.00166345
          7.6    0.00756697     0.0119002      -8.99936   0.000175628    -0.0017709    0.00175425
         7.65     0.0086638     0.0115983       -8.9997   0.000198945   -0.00184766    0.00184268
          7.7    0.00975795     0.0112773      -9.00004     0.0002224    -0.0019214    0.00192851
         7.75     0.0108471     0.0109375      -9.00039   0.000245925   -0.00199194     0.0020115
          7.8     0.0119291     0.0105793      -9.00074   0.000269453   -0.00205911    0.00209142
         7.85     0.0130014     0.0102033      -9.00109   0.000292914   -0.00212274    0.00216805
          7.9     0.0140619    0.00980997      -9.00145   0.000316237   -0.00218267    0.00224115
         7.95     0.0151082    0.00939988      -9.00182   0.000339352   -0.00223876    0.00231053
            8      0.016138    0.00897363      -9.00218   0.000362186   -0.00229085    0.00237595
         8.05      0.017149    0.00853188      -9.00255   0.000384668    -0.0023388    0.00243723
          8.1     0.0181389    0.00807532      -9.00292   0.000406723   -0.00238248    0.00249416
         8.15     0.0191054    0.00760467      -9.00329   0.000428281   -0.00242176    0.00254657
          8.2     0.0200463     0.0071207      -9.00366   0.000449268   -0.00245653    0.00259426
         8.25     0.0209595     0.0066242      -9.00403   0.000469612   -0.00248667    0.00263707
          8.3     0.0218426    0.00611601      -9.00439   0.000489242   -0.00251208    0.00267484
         8.35     0.0226935    0.00559701      -9.00476   0.000508088   -0.00253267    0.00270741
          8.4     0.0235103    0.00506809      -9.00512    0.00052608   -0.00254835    0.00273466
         8.45     0.0242907    0.00453019      -9.00548    0.00054315   -0.00255905    0.00275645
          8.5     0.0250328    0.00398429      -9.00583   0.000559232    -0.0025647    0.00277266
         8.55     0.0257347    0.00343136      -9.00618   0.000574262   -0.00256524    0.00278319
          8.6     0.0263945    0.00287245      -9.00653   0.000588177   -0.00256062    0.00278796
         8.65     0.0270104    0.00230858      -9.00686   0.000600917    -0.0025508    0.00278687
          8.7     0.0275806    0.00174084       -9.0072   0.000612424   -0.00253576    0.00277987
         8.75     0.0281035    0.00117033      -9.00752   0.000622644   -0.00251548    0.00276689
          8.8     0.0285775   0.000598147      -9.00783   0.000631524   -0.00248993    0.00274791
         8.85     0.0290012  2.54335e-005      -9.00814   0.000639016   -0.00245914     0.0027229
          8.9      0.029373  -0.000546663      -9.00844   0.000645074    -0.0024231    0.00269184
         8.95     0.0296917   -0.00111698      -9.00872   0.000649655   -0.00238183    0.00265473
            9      0.029956   -0.00168434        -9.009   0.000652722   -0.00233537     0.0026116
         9.05     0.0301649   -0.00224756      -9.00926   0.000654239   -0.00228376    0.00256247
          9.1     0.0303173   -0.00280546      -9.00951   0.000654176   -0.00222705    0.00250739
         9.15     0.0304123   -0.00335682      -9.00975   0.000652505    -0.0021653     0.0024464
          9.2     0.0304492   -0.00390046      -9.00998   0.000649204   -0.00209859    0.00237959
         9.25     0.0304272   -0.00443517      -9.01019   0.000644254   -0.00202699    0.00230703
          9.3     0.0303457   -0.00495976      -9.01038   0.000637641   -0.00195061    0.00222882
         9.35     0.0302042   -0.00547304      -9.01057   0.000629355   -0.00186954    0.00214506
          9.4     0.0300025   -0.00597382      -9.01073    0.00061939    -0.0017839    0.00205589
         9.45     0.0297404   -0.00646095      -9.01088   0.000607745   -0.00169381    0.00196142
          9.5     0.0294176   -0.00693324      -9.01102   0.000594423   -0.00159941     0.0018618
         9.55     0.0290343   -0.00738958      -9.01113   0.000579432   -0.00150084    0.00175719
          9.6     0.0285905   -0.00782882      -9.01123   0.000562784   -0.00139826    0.00164775
         9.65     0.0280865   -0.00824989      -9.01131   0.000544496   -0.00129182    0.00153366
          9.7     0.0275228   -0.00865168      -9.01138   0.000524589    -0.0011817    0.00141509
         9.75     0.0268999   -0.00903317      -9.01142   0.000503088   -0.00106809    0.00129224
          9.8     0.0262183   -0.00939334      -9.01145   0.000480021   -0.00095117    0.00116532
         9.85     0.0254789   -0.00973119      -9.01145   0.000455424  -0.000831142    0.00103453
          9.9     0.0246826    -0.0100458      -9.01144   0.000429333  -0.000708212   0.000900088
         9.95     0.0238304    -0.0103362      -9.01141    0.00040179  -0.000582596    0.00076222
           10     0.0229233    -0.0106016      -9.01136   0.000372841  -0.000454517    0.00062116
        10.05     0.0219628    -0.0108412      -9.01129   0.000342535  -0.000324204   0.000477145
