hotint output data
notes: time (s), wave elevation (m), surge (m), heave (m), pitch (rads), flap 1 pitch (rads), flap 2 pitch (rads)
amplitude: -0.1m, period: 14s
            0            -0    -2.77e-007            -9  6.86298e-009 -2.93391e-007  4.01773e-007
         0.05  3.73968e-006 -1.38689e-006            -9   3.5921e-008   -1.465e-006  1.97048e-006
          0.1  1.49549e-005 -3.61905e-006      -9.00001  9.84609e-008 -3.79915e-006  4.99538e-006
         0.15  3.36345e-005 -7.00689e-006      -9.00002  1.99397e-007 -7.27521e-006  9.33258e-006
          0.2  5.97595e-005 -1.16067e-005      -9.00003  3.42329e-007 -1.18602e-005  1.48462e-005
         0.25  9.33037e-005 -1.74941e-005      -9.00004  5.29774e-007 -1.75105e-005  2.14074e-005
          0.3   0.000134233  -2.4761e-005      -9.00006  7.63377e-007 -2.41738e-005  2.88951e-005
         0.35   0.000182507 -3.35131e-005      -9.00008  1.04409e-006 -3.17917e-005  3.71954e-005
          0.4   0.000238076 -4.38668e-005      -9.00011  1.37235e-006 -4.02997e-005  4.62016e-005
         0.45   0.000300884 -5.59476e-005      -9.00013  1.74819e-006 -4.96293e-005  5.58137e-005
          0.5   0.000370868 -6.98882e-005      -9.00016   2.1714e-006   -5.971e-005  6.59396e-005
         0.55   0.000447957  -8.5826e-005       -9.0002  2.64159e-006 -7.04707e-005  7.64952e-005
          0.6   0.000532074  -0.000103902      -9.00023  3.15834e-006 -8.18407e-005  8.74048e-005
         0.65   0.000623132  -0.000124261      -9.00028  3.72122e-006 -9.37512e-005  9.86005e-005
          0.7    0.00072104  -0.000147045      -9.00032  4.32989e-006  -0.000106136   0.000110023
         0.75   0.000825698  -0.000172399      -9.00037  4.98414e-006  -0.000118932   0.000121621
          0.8      0.000937  -0.000200466      -9.00042  5.68393e-006   -0.00013208   0.000133352
         0.85    0.00105483  -0.000231387      -9.00048  6.42942e-006  -0.000145529    0.00014518
          0.9    0.00117908  -0.000265297      -9.00054  7.22098e-006  -0.000159227   0.000157078
         0.95     0.0013096  -0.000302332       -9.0006  8.05921e-006  -0.000173133   0.000169026
            1    0.00144628  -0.000342621      -9.00067  8.94494e-006  -0.000187207   0.000181007
         1.05    0.00158897  -0.000386288      -9.00074   9.8792e-006  -0.000201416   0.000193014
          1.1    0.00173752  -0.000433454      -9.00081  1.08632e-005  -0.000215731   0.000205042
         1.15    0.00189178  -0.000484232      -9.00089  1.18985e-005  -0.000230129   0.000217092
          1.2     0.0020516  -0.000538732      -9.00097  1.29865e-005  -0.000244589   0.000229167
         1.25     0.0022168  -0.000597057      -9.00106   1.4129e-005  -0.000259095   0.000241273
          1.3    0.00238722  -0.000659303      -9.00115  1.53278e-005  -0.000273636   0.000253419
         1.35    0.00256268  -0.000725563      -9.00124  1.65847e-005  -0.000288201   0.000265615
          1.4      0.002743  -0.000795923      -9.00134  1.79015e-005  -0.000302782    0.00027787
         1.45    0.00292799  -0.000870462      -9.00144  1.92801e-005  -0.000317373   0.000290195
          1.5    0.00311745  -0.000949255      -9.00154  2.07222e-005  -0.000331969   0.000302599
         1.55    0.00331119   -0.00103237      -9.00165  2.22295e-005  -0.000346567    0.00031509
          1.6    0.00350901   -0.00111988      -9.00176  2.38034e-005  -0.000361161   0.000327674
         1.65    0.00371069   -0.00121183      -9.00188  2.54454e-005  -0.000375748   0.000340356
          1.7    0.00391602   -0.00130828        -9.002  2.71565e-005  -0.000390322   0.000353137
         1.75    0.00412479   -0.00140928      -9.00212  2.89375e-005  -0.000404879   0.000366016
          1.8    0.00433677   -0.00151487      -9.00224   3.0789e-005  -0.000419411    0.00037899
         1.85    0.00455173    -0.0016251      -9.00237  3.27112e-005  -0.000433911   0.000392053
          1.9    0.00476945      -0.00174      -9.00251  3.47041e-005  -0.000448369   0.000405196
         1.95    0.00498969    -0.0018596      -9.00264  3.67672e-005  -0.000462774   0.000418406
            2    0.00521221   -0.00198394      -9.00278  3.88997e-005  -0.000477115    0.00043167
         2.05    0.00543677   -0.00211303      -9.00292  4.11004e-005  -0.000491379    0.00044497
          2.1    0.00566312    -0.0022469      -9.00307  4.33676e-005  -0.000505551   0.000458286
         2.15    0.00589101   -0.00238555      -9.00321  4.56993e-005  -0.000519615   0.000471598
          2.2     0.0061202   -0.00252902      -9.00336   4.8093e-005  -0.000533555   0.000484883
         2.25    0.00635043    -0.0026773      -9.00351  5.05458e-005  -0.000547354   0.000498114
          2.3    0.00658144    -0.0028304      -9.00367  5.30543e-005  -0.000560994   0.000511265
         2.35    0.00681297   -0.00298833      -9.00383  5.56148e-005  -0.000574457   0.000524309
          2.4    0.00704476   -0.00315108      -9.00399   5.8223e-005  -0.000587724   0.000537216
         2.45    0.00727655   -0.00331865      -9.00415  6.08744e-005  -0.000600776   0.000549957
          2.5    0.00750807   -0.00349103      -9.00431  6.35638e-005  -0.000613596   0.000562501
         2.55    0.00773906    -0.0036682      -9.00448  6.62857e-005  -0.000626165   0.000574818
          2.6    0.00796924   -0.00385016      -9.00465  6.90342e-005  -0.000638466   0.000586876
         2.65    0.00819835   -0.00403688      -9.00481   7.1803e-005   -0.00065048   0.000598643
          2.7    0.00842611   -0.00422834      -9.00498  7.45854e-005  -0.000662191   0.000610088
         2.75    0.00865226   -0.00442452      -9.00516  7.73744e-005  -0.000673582   0.000621179
          2.8    0.00887653   -0.00462537      -9.00533  8.01624e-005  -0.000684637   0.000631883
         2.85    0.00909863   -0.00483088       -9.0055  8.29418e-005  -0.000695341   0.000642168
          2.9    0.00931831   -0.00504099      -9.00567  8.57044e-005  -0.000705678   0.000652003
         2.95    0.00953528   -0.00525567      -9.00585  8.84418e-005  -0.000715634   0.000661354
            3    0.00974928   -0.00547487      -9.00602  9.11454e-005  -0.000725195   0.000670191
         3.05    0.00996003   -0.00569853       -9.0062  9.38061e-005  -0.000734347   0.000678481
          3.1     0.0101673   -0.00592661      -9.00637  9.64149e-005  -0.000743077   0.000686193
         3.15     0.0103707   -0.00615905      -9.00655  9.89623e-005  -0.000751372   0.000693296
          3.2     0.0105701   -0.00639578      -9.00672   0.000101439  -0.000759221    0.00069976
         3.25     0.0107652   -0.00663673       -9.0069   0.000103834  -0.000766612   0.000705555
          3.3     0.0109557   -0.00688184      -9.00707    0.00010614  -0.000773533   0.000710651
         3.35     0.0111414   -0.00713102      -9.00724   0.000108345  -0.000779974    0.00071502
          3.4     0.0113219    -0.0073842      -9.00741   0.000110439  -0.000785925   0.000718634
         3.45     0.0114971    -0.0076413      -9.00758   0.000112414  -0.000791377   0.000721467
          3.5     0.0116667   -0.00790222      -9.00775   0.000114257  -0.000796321   0.000723494
         3.55     0.0118304   -0.00816687      -9.00792   0.000115961   -0.00080075   0.000724689
          3.6     0.0119879   -0.00843516      -9.00808   0.000117515  -0.000804655   0.000725031
         3.65     0.0121391   -0.00870698      -9.00824   0.000118908   -0.00080803   0.000724497
          3.7     0.0122837   -0.00898222       -9.0084   0.000120133  -0.000810871   0.000723068
         3.75     0.0124214   -0.00926078      -9.00856   0.000121178  -0.000813171   0.000720725
          3.8      0.012552   -0.00954253      -9.00871   0.000122036  -0.000814928    0.00071745
         3.85     0.0126753   -0.00982736      -9.00886   0.000122697  -0.000816137   0.000713229
          3.9     0.0127911    -0.0101151      -9.00901   0.000123152  -0.000816797   0.000708047
         3.95     0.0128991    -0.0104057      -9.00915   0.000123393  -0.000816905   0.000701893
            4      0.012999     -0.010699      -9.00929   0.000123413  -0.000816461   0.000694756
         4.05     0.0130908    -0.0109948      -9.00942   0.000123203  -0.000815465   0.000686626
          4.1     0.0131742    -0.0112931      -9.00955   0.000122756  -0.000813917   0.000677496
         4.15     0.0132489    -0.0115935      -9.00968   0.000122066  -0.000811818   0.000667362
          4.2     0.0133148    -0.0118961       -9.0098   0.000121127   -0.00080917   0.000656218
         4.25     0.0133717    -0.0122006      -9.00992   0.000119932  -0.000805974   0.000644063
          4.3     0.0134194    -0.0125069      -9.01003   0.000118476  -0.000802233   0.000630896
         4.35     0.0134577    -0.0128148      -9.01014   0.000116755   -0.00079795   0.000616718
          4.4     0.0134864    -0.0131241      -9.01024   0.000114765  -0.000793128   0.000601531
         4.45     0.0135054    -0.0134347      -9.01033   0.000112501   -0.00078777    0.00058534
          4.5     0.0135145    -0.0137464      -9.01042   0.000109961  -0.000781879   0.000568151
         4.55     0.0135136     -0.014059       -9.0105   0.000107142  -0.000775461   0.000549972
          4.6     0.0135025    -0.0143723      -9.01058   0.000104043  -0.000768518   0.000530812
         4.65      0.013481    -0.0146861      -9.01064   0.000100663  -0.000761055   0.000510683
          4.7      0.013449    -0.0150002       -9.0107  9.70019e-005  -0.000753076   0.000489597
         4.75     0.0134065    -0.0153144      -9.01076  9.30591e-005  -0.000744588    0.00046757
          4.8     0.0133532    -0.0156286      -9.01081  8.88361e-005  -0.000735594   0.000444618
         4.85      0.013289    -0.0159425      -9.01085  8.43345e-005  -0.000726099    0.00042076
          4.9     0.0132139    -0.0162559      -9.01088  7.95568e-005  -0.000716111   0.000396015
         4.95     0.0131278    -0.0165685       -9.0109   7.4506e-005  -0.000705634   0.000370405
            5     0.0130305    -0.0168803      -9.01092  6.91862e-005  -0.000694674   0.000343954
         5.05      0.012922    -0.0171909      -9.01092  6.36017e-005  -0.000683238   0.000316687
          5.1     0.0128022    -0.0175001      -9.01092  5.77578e-005  -0.000671334    0.00028863
         5.15      0.012671    -0.0178078      -9.01091  5.16604e-005  -0.000658966   0.000259811
          5.2     0.0125284    -0.0181136      -9.01089  4.53162e-005  -0.000646143    0.00023026
         5.25     0.0123744    -0.0184174      -9.01086  3.87324e-005  -0.000632872   0.000200007
          5.3     0.0122088     -0.018719      -9.01082  3.19169e-005   -0.00061916   0.000169085
         5.35     0.0120316     -0.019018      -9.01078  2.48783e-005  -0.000605015   0.000137525
          5.4     0.0118429    -0.0193142      -9.01072  1.76257e-005  -0.000590443   0.000105362
         5.45     0.0116426    -0.0196075      -9.01065   1.0169e-005  -0.000575453  7.26313e-005
          5.5     0.0114306    -0.0198976      -9.01058  2.51851e-006  -0.000560051   3.9368e-005
         5.55     0.0112071    -0.0201843      -9.01049 -5.31488e-006  -0.000544246   5.6085e-006
          5.6      0.010972    -0.0204672      -9.01039 -1.33197e-005  -0.000528045 -2.86101e-005
         5.65     0.0107253    -0.0207462      -9.01029 -2.14841e-005  -0.000511454 -6.32502e-005
          5.7      0.010467    -0.0210211      -9.01017 -2.97956e-005  -0.000494482 -9.82739e-005
         5.75     0.0101973    -0.0212916      -9.01004 -3.82414e-005  -0.000477137  -0.000133643
          5.8    0.00991605    -0.0215574       -9.0099 -4.68082e-005  -0.000459424  -0.000169318
         5.85    0.00962341    -0.0218183      -9.00975 -5.54824e-005  -0.000441352  -0.000205262
          5.9    0.00931942    -0.0220741      -9.00959 -6.42501e-005  -0.000422928  -0.000241434
         5.95    0.00900414    -0.0223245      -9.00942 -7.30969e-005  -0.000404159  -0.000277795
            6    0.00867767    -0.0225694      -9.00924 -8.20085e-005  -0.000385053  -0.000314308
         6.05     0.0083401    -0.0228084      -9.00905 -9.09699e-005  -0.000365618  -0.000350932
          6.1    0.00799151    -0.0230414      -9.00885 -9.99663e-005  -0.000345861  -0.000387629
         6.15    0.00763202     -0.023268      -9.00863  -0.000108982   -0.00032579  -0.000424361
          6.2    0.00726175    -0.0234881      -9.00841  -0.000118003  -0.000305413  -0.000461089
         6.25    0.00688081    -0.0237015      -9.00817  -0.000127013  -0.000284738  -0.000497775
          6.3    0.00648936    -0.0239079      -9.00792  -0.000135997  -0.000263774  -0.000534383
         6.35    0.00608752    -0.0241071      -9.00766   -0.00014494  -0.000242527  -0.000570874
          6.4    0.00567545    -0.0242988      -9.00739  -0.000153826  -0.000221008  -0.000607213
         6.45    0.00525332     -0.024483      -9.00711   -0.00016264  -0.000199224  -0.000643363
          6.5    0.00482129    -0.0246592      -9.00682  -0.000171366  -0.000177184   -0.00067929
         6.55    0.00437954    -0.0248274      -9.00651  -0.000179991  -0.000154897  -0.000714958
          6.6    0.00392825    -0.0249873       -9.0062  -0.000188498  -0.000132371  -0.000750334
         6.65    0.00346763    -0.0251387      -9.00587  -0.000196874  -0.000109616  -0.000785385
          6.7    0.00299788    -0.0252815      -9.00553  -0.000205104 -8.66408e-005  -0.000820078
         6.75     0.0025192    -0.0254153      -9.00519  -0.000213173 -6.34543e-005  -0.000854381
          6.8    0.00203182    -0.0255401      -9.00483  -0.000221068  -4.0066e-005  -0.000888263
         6.85    0.00153598    -0.0256557      -9.00446  -0.000228776 -1.64855e-005  -0.000921695
          6.9    0.00103189    -0.0257617      -9.00408  -0.000236282  7.27742e-006  -0.000954646
         6.95   0.000519815    -0.0258582      -9.00369  -0.000243575  3.12128e-005  -0.000987089
            7  1.79013e-016    -0.0259449      -9.00329  -0.000250642  5.53105e-005   -0.00101899
         7.05  -0.000527295    -0.0260216      -9.00287   -0.00025747  7.95598e-005   -0.00105034
          7.1    -0.0010618    -0.0260881      -9.00245  -0.000264049    0.00010395   -0.00108109
         7.15   -0.00160324    -0.0261444      -9.00202  -0.000270368    0.00012847   -0.00111122
          7.2   -0.00215134    -0.0261902      -9.00158  -0.000276415   0.000153107   -0.00114072
         7.25   -0.00270581    -0.0262255      -9.00113  -0.000282181   0.000177851   -0.00116955
          7.3   -0.00326634      -0.02625      -9.00067  -0.000287656   0.000202689   -0.00119769
         7.35   -0.00383264    -0.0262636       -9.0002  -0.000292831   0.000227607   -0.00122512
          7.4    -0.0044044    -0.0262662      -8.99972  -0.000297698   0.000252593   -0.00125181
         7.45    -0.0049813    -0.0262577      -8.99923  -0.000302249   0.000277632   -0.00127775
          7.5   -0.00556302    -0.0262379      -8.99874  -0.000306477   0.000302712   -0.00130292
         7.55   -0.00614923    -0.0262068      -8.99823  -0.000310375   0.000327816   -0.00132729
          7.6    -0.0067396    -0.0261641      -8.99772  -0.000313937   0.000352931   -0.00135085
         7.65   -0.00733378    -0.0261099       -8.9972  -0.000317159    0.00037804   -0.00137358
          7.7   -0.00793144    -0.0260441      -8.99667  -0.000320034   0.000403127   -0.00139546
         7.75   -0.00853221    -0.0259664      -8.99613   -0.00032256   0.000428176   -0.00141647
          7.8   -0.00913575    -0.0258769      -8.99559  -0.000324732    0.00045317   -0.00143661
         7.85   -0.00974168    -0.0257755      -8.99504  -0.000326549    0.00047809   -0.00145584
          7.9    -0.0103497     -0.025662      -8.99448  -0.000328007   0.000502919   -0.00147417
         7.95    -0.0109593    -0.0255365      -8.99392  -0.000329106   0.000527639   -0.00149158
            8    -0.0115702    -0.0253989      -8.99335  -0.000329845   0.000552229   -0.00150805
         8.05    -0.0121821    -0.0252491      -8.99278  -0.000330224    0.00057667   -0.00152357
          8.1    -0.0127945    -0.0250871       -8.9922  -0.000330243   0.000600942   -0.00153813
         8.15     -0.013407    -0.0249128      -8.99161  -0.000329904   0.000625023   -0.00155173
          8.2    -0.0140192    -0.0247263      -8.99102  -0.000329209   0.000648892   -0.00156434
         8.25    -0.0146309    -0.0245274      -8.99043  -0.000328159   0.000672528   -0.00157597
          8.3    -0.0152415    -0.0243162      -8.98983  -0.000326759   0.000695907    -0.0015866
         8.35    -0.0158507    -0.0240927      -8.98923  -0.000325012   0.000719007   -0.00159623
          8.4     -0.016458    -0.0238569      -8.98863  -0.000322922   0.000741805   -0.00160485
         8.45    -0.0170631    -0.0236087      -8.98802  -0.000320495   0.000764277   -0.00161245
          8.5    -0.0176655    -0.0233482      -8.98742  -0.000317736   0.000786399   -0.00161902
         8.55     -0.018265    -0.0230754      -8.98681   -0.00031465   0.000808147   -0.00162457
          8.6    -0.0188609    -0.0227903      -8.98619  -0.000311245   0.000829497   -0.00162908
         8.65     -0.019453     -0.022493      -8.98558  -0.000307527   0.000850425   -0.00163254
          8.7    -0.0200408    -0.0221835      -8.98497  -0.000303505   0.000870906   -0.00163497
         8.75    -0.0206239    -0.0218618      -8.98436  -0.000299185   0.000890916   -0.00163634
          8.8     -0.021202    -0.0215281      -8.98374  -0.000294576   0.000910432   -0.00163666
         8.85    -0.0217745    -0.0211823      -8.98313  -0.000289686   0.000929428   -0.00163592
          8.9    -0.0223411    -0.0208246      -8.98252  -0.000284526   0.000947883   -0.00163411
         8.95    -0.0229014     -0.020455      -8.98191  -0.000279103   0.000965772   -0.00163125
            9    -0.0234549    -0.0200736       -8.9813  -0.000273427   0.000983072   -0.00162731
         9.05    -0.0240013    -0.0196805       -8.9807  -0.000267509   0.000999761   -0.00162231
          9.1    -0.0245402    -0.0192758      -8.98009  -0.000261357    0.00101582   -0.00161624
         9.15    -0.0250711    -0.0188596       -8.9795  -0.000254983    0.00103122   -0.00160909
          9.2    -0.0255936     -0.018432       -8.9789  -0.000248395    0.00104595   -0.00160087
         9.25    -0.0261073    -0.0179931      -8.97831  -0.000241606    0.00105998   -0.00159157
          9.3    -0.0266119    -0.0175432      -8.97772  -0.000234624    0.00107329   -0.00158121
         9.35    -0.0271069    -0.0170822      -8.97714  -0.000227461    0.00108588   -0.00156976
          9.4     -0.027592    -0.0166103      -8.97657  -0.000220127    0.00109771   -0.00155725
         9.45    -0.0280667    -0.0161277        -8.976  -0.000212632    0.00110877   -0.00154367
          9.5    -0.0285307    -0.0156346      -8.97544  -0.000204987    0.00111905   -0.00152903
         9.55    -0.0289835     -0.015131      -8.97488  -0.000197202    0.00112854   -0.00151333
          9.6    -0.0294249    -0.0146172      -8.97434  -0.000189288     0.0011372   -0.00149657
         9.65    -0.0298544    -0.0140934       -8.9738  -0.000181254    0.00114505   -0.00147876
          9.7    -0.0302716    -0.0135597      -8.97327  -0.000173112    0.00115206   -0.00145992
         9.75    -0.0306762    -0.0130162      -8.97275   -0.00016487    0.00115822   -0.00144005
          9.8    -0.0310678    -0.0124633      -8.97224  -0.000156538    0.00116352   -0.00141916
         9.85    -0.0314462    -0.0119011      -8.97174  -0.000148127    0.00116797   -0.00139727
          9.9    -0.0318108    -0.0113298      -8.97125  -0.000139646    0.00117155   -0.00137438
         9.95    -0.0321614    -0.0107496      -8.97077  -0.000131104    0.00117425   -0.00135052
           10    -0.0324976    -0.0101607       -8.9703  -0.000122511    0.00117608    -0.0013257
        10.05    -0.0328191   -0.00956343      -8.96984  -0.000113874    0.00117703   -0.00129994
