hotint output data
notes: time (s), wave elevation (m), surge (m), heave (m), pitch (rads), flap 1 pitch (rads), flap 2 pitch (rads)
amplitude: -0.1m, period: 6s
            0            -0 -3.96711e-007            -9  1.24268e-008 -1.81225e-006  4.81415e-007
         0.05  8.72266e-006 -2.18553e-006            -9  4.86736e-008 -8.82484e-006  2.38967e-006
          0.1  3.48428e-005 -6.32964e-006            -9  8.34199e-008 -2.21527e-005  6.14267e-006
         0.15  7.82172e-005 -1.34842e-005            -9   7.3112e-008 -4.08938e-005  1.16275e-005
          0.2   0.000138608 -2.41642e-005      -9.00001 -1.62249e-008 -6.41821e-005  1.86938e-005
         0.25   0.000215683 -3.87583e-005      -9.00001 -2.09871e-007 -9.11842e-005  2.71623e-005
          0.3   0.000309017 -5.75382e-005      -9.00001 -5.25246e-007  -0.000121104  3.68324e-005
         0.35   0.000418096 -8.06686e-005      -9.00002 -9.72689e-007  -0.000153183  4.74896e-005
          0.4   0.000542316  -0.000108217      -9.00002 -1.55613e-006  -0.000186698  5.89104e-005
         0.45   0.000680986   -0.00014016      -9.00002 -2.27375e-006  -0.000220966  7.08676e-005
          0.5   0.000833333  -0.000176391      -9.00003 -3.11863e-006  -0.000255344  8.31355e-005
         0.55   0.000998505  -0.000216724      -9.00003 -4.07941e-006  -0.000289238  9.54936e-005
          0.6    0.00117557  -0.000260904      -9.00003 -5.14091e-006    -0.0003221    0.00010773
         0.65    0.00136353   -0.00030861      -9.00003 -6.28473e-006  -0.000353432   0.000119646
          0.7     0.0015613  -0.000359461      -9.00003 -7.48982e-006  -0.000382783   0.000131053
         0.75    0.00176777  -0.000413025      -9.00003 -8.73309e-006  -0.000409757   0.000141782
          0.8    0.00198172  -0.000468822      -9.00003 -9.99001e-006  -0.000434006   0.000151678
         0.85    0.00220191  -0.000526333      -9.00003  -1.1235e-005  -0.000455235   0.000160605
          0.9    0.00242705  -0.000585003      -9.00003 -1.24422e-005  -0.000473193   0.000168444
         0.95    0.00265579  -0.000644248      -9.00002 -1.35855e-005  -0.000487676   0.000175093
            1    0.00288675  -0.000703462      -9.00002 -1.46394e-005  -0.000498524   0.000180468
         1.05    0.00311852   -0.00076202      -9.00001 -1.55792e-005  -0.000505618   0.000184499
          1.1    0.00334967  -0.000819285            -9 -1.63812e-005  -0.000508875   0.000187133
         1.15    0.00357872  -0.000874611      -8.99999 -1.70233e-005  -0.000508247    0.00018833
          1.2    0.00380423   -0.00092735      -8.99998 -1.74854e-005  -0.000503717   0.000188062
         1.25    0.00402469  -0.000976855      -8.99996 -1.77489e-005  -0.000495295   0.000186313
          1.3    0.00423864   -0.00102248      -8.99994 -1.77978e-005  -0.000483014   0.000183076
         1.35     0.0044446   -0.00106361      -8.99992 -1.76183e-005  -0.000466929    0.00017835
          1.4     0.0046411    -0.0010996       -8.9999 -1.71991e-005   -0.00044711   0.000172142
         1.45    0.00482671   -0.00112986      -8.99987 -1.65313e-005  -0.000423642   0.000164464
          1.5         0.005   -0.00115381      -8.99985 -1.56087e-005  -0.000396622   0.000155331
         1.55    0.00515959   -0.00117088      -8.99981 -1.44278e-005  -0.000366153    0.00014476
          1.6    0.00530412   -0.00118053      -8.99978 -1.29876e-005  -0.000332349    0.00013277
         1.65    0.00543229   -0.00118225      -8.99974 -1.12897e-005  -0.000295326   0.000119379
          1.7    0.00554284   -0.00117554       -8.9997 -9.33825e-006  -0.000255204   0.000104607
         1.75    0.00563457   -0.00115996      -8.99966  -7.1398e-006  -0.000212106  8.84714e-005
          1.8    0.00570634   -0.00113506      -8.99961 -4.70332e-006  -0.000166157  7.09891e-005
         1.85    0.00575708   -0.00110046      -8.99956 -2.04001e-006  -0.000117484  5.21759e-005
          1.9    0.00578579   -0.00105577      -8.99951   8.3673e-007 -6.62153e-005  3.20461e-005
         1.95    0.00579154   -0.00100067      -8.99945  3.91149e-006  -1.2481e-005  1.06131e-005
            2     0.0057735  -0.000934851       -8.9994   7.1669e-006  4.35868e-005 -1.21102e-005
         2.05    0.00573092  -0.000858046      -8.99933  1.05838e-005   0.000101853 -3.61117e-005
          2.1    0.00566312  -0.000770016      -8.99927  1.41414e-005    0.00016218 -6.13787e-005
         2.15    0.00556955  -0.000670561       -8.9992  1.78173e-005   0.000224426  -8.7898e-005
          2.2    0.00544973  -0.000559512      -8.99913  2.15878e-005   0.000288444  -0.000115655
         2.25     0.0053033  -0.000436736      -8.99906  2.54277e-005   0.000354082  -0.000144632
          2.3       0.00513  -0.000302136      -8.99898   2.9311e-005   0.000421184  -0.000174811
         2.35    0.00492968   -0.00015565       -8.9989  3.32105e-005   0.000489587  -0.000206169
          2.4    0.00470228  2.74871e-006      -8.99882  3.70982e-005   0.000559124   -0.00023868
         2.45    0.00444789    0.00017305      -8.99873  4.09453e-005   0.000629615  -0.000272313
          2.5    0.00416667   0.000355208      -8.99865  4.47226e-005   0.000700879  -0.000307032
         2.55    0.00385892   0.000549138      -8.99856  4.84002e-005   0.000772725  -0.000342795
          2.6    0.00352505   0.000754722      -8.99847  5.19482e-005   0.000844956  -0.000379557
         2.65    0.00316558   0.000971802      -8.99838  5.53365e-005   0.000917372  -0.000417265
          2.7    0.00278115    0.00120018      -8.99829  5.85348e-005   0.000989765  -0.000455859
         2.75    0.00237251    0.00143964      -8.99819  6.15135e-005    0.00106192  -0.000495276
          2.8    0.00194051    0.00168989       -8.9981  6.42428e-005    0.00113363  -0.000535444
         2.85    0.00148613    0.00195065        -8.998   6.6694e-005    0.00120467  -0.000576288
          2.9    0.00101044    0.00222157       -8.9979  6.88387e-005    0.00127483  -0.000617722
         2.95   0.000514637    0.00250228      -8.99781  7.06496e-005    0.00134387   -0.00065966
            3  3.23109e-017    0.00279237      -8.99771  7.21004e-005    0.00141158  -0.000702007
         3.05  -0.000532082     0.0030914      -8.99761   7.3166e-005    0.00147773  -0.000744662
          3.1   -0.00108013     0.0033989      -8.99752  7.38228e-005     0.0015421  -0.000787521
         3.15   -0.00164256    0.00371435      -8.99742  7.40487e-005    0.00160447  -0.000830474
          3.2   -0.00221772    0.00403723      -8.99733  7.38234e-005    0.00166463  -0.000873404
         3.25   -0.00280387    0.00436698      -8.99724  7.31283e-005    0.00172235  -0.000916195
          3.3   -0.00339919    0.00470299      -8.99715  7.19469e-005    0.00177742  -0.000958721
         3.35   -0.00400178    0.00504466      -8.99706   7.0265e-005    0.00182964   -0.00100086
          3.4   -0.00460968    0.00539135      -8.99697  6.80703e-005     0.0018788   -0.00104247
         3.45   -0.00522089     0.0057424      -8.99689  6.53533e-005    0.00192471   -0.00108342
          3.5   -0.00583333    0.00609712      -8.99681  6.21067e-005    0.00196716   -0.00112359
         3.55    -0.0064449    0.00645481      -8.99673  5.83258e-005    0.00200597   -0.00116282
          3.6   -0.00705342    0.00681475      -8.99666  5.40087e-005    0.00204095   -0.00120097
         3.65   -0.00765673    0.00717621      -8.99659   4.9156e-005    0.00207195   -0.00123791
          3.7   -0.00825261    0.00753845      -8.99653  4.37711e-005    0.00209878   -0.00127348
         3.75   -0.00883883    0.00790069      -8.99647  3.78603e-005    0.00212129   -0.00130755
          3.8   -0.00941317    0.00826219      -8.99642  3.14327e-005    0.00213933   -0.00133996
         3.85   -0.00997337    0.00862215      -8.99637  2.45002e-005    0.00215277   -0.00137057
          3.9    -0.0105172    0.00897979      -8.99633  1.70777e-005    0.00216148   -0.00139923
         3.95    -0.0110425    0.00933434      -8.99629  9.18272e-006    0.00216535    -0.0014258
            4     -0.011547      0.009685      -8.99626  8.35878e-007    0.00216427   -0.00145014
         4.05    -0.0120286      0.010031      -8.99624  -7.9395e-006    0.00215815   -0.00147211
          4.1    -0.0124851     0.0103715      -8.99622 -1.71173e-005    0.00214692   -0.00149156
         4.15    -0.0129145     0.0107058      -8.99621 -2.66685e-005    0.00213053   -0.00150836
          4.2    -0.0133148     0.0110331      -8.99621 -3.65615e-005    0.00210893   -0.00152239
         4.25    -0.0136839     0.0113526      -8.99621 -4.67621e-005    0.00208209   -0.00153351
          4.3    -0.0140201     0.0116635      -8.99622 -5.72335e-005    0.00205001   -0.00154161
         4.35    -0.0143215     0.0119652      -8.99624 -6.79363e-005    0.00201268   -0.00154656
          4.4    -0.0145863     0.0122569      -8.99627 -7.88288e-005    0.00197014   -0.00154827
         4.45     -0.014813     0.0125379      -8.99631 -8.98672e-005    0.00192242   -0.00154662
          4.5        -0.015     0.0128075      -8.99635  -0.000101005    0.00186958   -0.00154153
         4.55    -0.0151459      0.013065      -8.99641  -0.000112195     0.0018117    -0.0015329
          4.6    -0.0152493     0.0133099      -8.99647  -0.000123387    0.00174887   -0.00152065
         4.65    -0.0153092     0.0135415      -8.99654  -0.000134528    0.00168121   -0.00150472
          4.7    -0.0153243     0.0137592      -8.99662  -0.000145567    0.00160883   -0.00148504
         4.75    -0.0152938     0.0139625      -8.99671   -0.00015645    0.00153188   -0.00146156
          4.8    -0.0152169     0.0141508       -8.9968  -0.000167119    0.00145053   -0.00143424
         4.85    -0.0150929     0.0143237      -8.99691   -0.00017752    0.00136494   -0.00140303
          4.9    -0.0149212     0.0144808      -8.99702  -0.000187595    0.00127531   -0.00136794
         4.95    -0.0147016     0.0146215      -8.99715  -0.000197288    0.00118184   -0.00132893
            5    -0.0144338     0.0147457      -8.99728  -0.000206541    0.00108476   -0.00128601
         5.05    -0.0141176     0.0148528      -8.99742  -0.000215296   0.000984294   -0.00123921
          5.1    -0.0137533     0.0149427      -8.99757  -0.000223496   0.000880697   -0.00118853
         5.15     -0.013341     0.0150152      -8.99772  -0.000231086   0.000774228   -0.00113401
          5.2    -0.0128812     0.0150699      -8.99789   -0.00023801   0.000665163   -0.00107572
         5.25    -0.0123744     0.0151068      -8.99806  -0.000244213   0.000553786    -0.0010137
          5.3    -0.0118213     0.0151258      -8.99824  -0.000249644   0.000440395  -0.000948046
         5.35    -0.0112229     0.0151267      -8.99842  -0.000254249   0.000325297  -0.000878834
          5.4    -0.0105801     0.0151097      -8.99862  -0.000257982    0.00020881   -0.00080617
         5.45   -0.00989428     0.0150747      -8.99882  -0.000260793    9.126e-005  -0.000730172
          5.5   -0.00916667     0.0150218      -8.99902  -0.000262639 -2.70194e-005  -0.000650971
         5.55   -0.00839882     0.0149512      -8.99924  -0.000263478  -0.000145687  -0.000568709
          5.6   -0.00759242      0.014863      -8.99945  -0.000263272  -0.000264397  -0.000483546
         5.65   -0.00674926     0.0147574      -8.99968  -0.000261983  -0.000382796  -0.000395653
          5.7   -0.00587132     0.0146348       -8.9999  -0.000259581  -0.000500531  -0.000305214
         5.75    -0.0049607     0.0144955      -9.00013  -0.000256037  -0.000617243  -0.000212428
          5.8   -0.00401963     0.0143399      -9.00037  -0.000251327  -0.000732573  -0.000117506
         5.85   -0.00305047     0.0141683      -9.00061  -0.000245429  -0.000846163 -2.06703e-005
          5.9   -0.00205573     0.0139812      -9.00085  -0.000238328  -0.000957654  7.78425e-005
         5.95     -0.001038     0.0137792      -9.00109  -0.000230012   -0.00106669   0.000177785
            6 -2.89116e-016     0.0135628      -9.00134  -0.000220474   -0.00117292     0.0002789
         6.05    0.00105544     0.0133326      -9.00158  -0.000209713   -0.00127599   0.000380917
          6.1    0.00212541     0.0130893      -9.00183   -0.00019773   -0.00137557   0.000483558
         6.15    0.00320691     0.0128335      -9.00208  -0.000184534   -0.00147132   0.000586535
          6.2    0.00429684     0.0125659      -9.00232  -0.000170139    -0.0015629   0.000689552
         6.25    0.00539206     0.0122874      -9.00257  -0.000154562   -0.00165001   0.000792304
          6.3    0.00648936     0.0119986      -9.00281  -0.000137826   -0.00173233   0.000894481
         6.35    0.00758545     0.0117005      -9.00305  -0.000119962   -0.00180957   0.000995767
          6.4    0.00867705     0.0113938      -9.00329  -0.000101004   -0.00188144    0.00109584
         6.45     0.0097608     0.0110795      -9.00352 -8.09904e-005   -0.00194767    0.00119438
          6.5     0.0108333     0.0107584      -9.00375 -5.99672e-005     -0.002008    0.00129105
         6.55     0.0118913     0.0104315      -9.00398 -3.79846e-005   -0.00206218    0.00138553
          6.6     0.0129313     0.0100997       -9.0042  -1.5098e-005      -0.00211    0.00147749
         6.65     0.0139499    0.00976408      -9.00441  8.63209e-006   -0.00215124    0.00156659
          6.7     0.0149439    0.00942553      -9.00462  3.31403e-005    -0.0021857    0.00165252
         6.75     0.0159099    0.00908508      -9.00482  5.83565e-005   -0.00221321    0.00173496
          6.8     0.0168446    0.00874376      -9.00501  8.42059e-005   -0.00223361    0.00181357
         6.85     0.0177448    0.00840257       -9.0052   0.000110609   -0.00224678    0.00188805
          6.9     0.0186074    0.00806256      -9.00537   0.000137484   -0.00225258     0.0019581
         6.95     0.0194292    0.00772476      -9.00554   0.000164741   -0.00225092    0.00202341
            7     0.0202073     0.0073902       -9.0057   0.000192292   -0.00224173    0.00208371
         7.05     0.0209387    0.00705993      -9.00584   0.000220041   -0.00222496     0.0021387
          7.1     0.0216206    0.00673496      -9.00598   0.000247892   -0.00220058    0.00218814
         7.15     0.0222503    0.00641634       -9.0061   0.000275743   -0.00216858    0.00223176
          7.2     0.0228254    0.00610506      -9.00621   0.000303494   -0.00212897    0.00226933
         7.25     0.0233432    0.00580215      -9.00631    0.00033104   -0.00208179    0.00230063
          7.3     0.0238016    0.00550858       -9.0064   0.000358274   -0.00202711    0.00232545
         7.35     0.0241984    0.00522534      -9.00648   0.000385089     -0.001965    0.00234361
          7.4     0.0245315    0.00495337      -9.00654   0.000411378   -0.00189558    0.00235493
         7.45     0.0247993     0.0046936      -9.00659   0.000437031   -0.00181899    0.00235927
          7.5         0.025    0.00444694      -9.00662   0.000461939   -0.00173536     0.0023565
         7.55     0.0251322    0.00421428      -9.00664   0.000485995   -0.00164488     0.0023465
          7.6     0.0251946    0.00399646      -9.00665    0.00050909   -0.00154775    0.00232919
         7.65     0.0251861     0.0037943      -9.00664   0.000531118   -0.00144419    0.00230452
          7.7     0.0251058    0.00360859      -9.00661   0.000551974   -0.00133445    0.00227242
         7.75     0.0249531    0.00344007      -9.00658   0.000571556   -0.00121879     0.0022329
          7.8     0.0247275    0.00328945      -9.00652   0.000589763   -0.00109749    0.00218594
         7.85     0.0244287    0.00315741      -9.00645   0.000606497   -0.00097086    0.00213159
          7.9     0.0240567    0.00304456      -9.00637   0.000621665  -0.000839225     0.0020699
         7.95     0.0236117    0.00295149      -9.00627   0.000635177  -0.000702927    0.00200094
            8      0.023094    0.00287874      -9.00616   0.000646945  -0.000562327    0.00192482
         8.05     0.0225043     0.0028268      -9.00603   0.000656889  -0.000417801    0.00184166
          8.1     0.0218435     0.0027961      -9.00589   0.000664932  -0.000269743    0.00175163
         8.15     0.0211125    0.00278702      -9.00574   0.000671002  -0.000118559    0.00165489
          8.2     0.0203126    0.00279992      -9.00557   0.000675034  3.53307e-005    0.00155165
         8.25     0.0194454    0.00283506      -9.00538   0.000676967   0.000191492    0.00144214
          8.3     0.0185126    0.00289267      -9.00519   0.000676749   0.000349483     0.0013266
         8.35     0.0175161    0.00297292      -9.00498   0.000674333   0.000508849     0.0012053
          8.4      0.016458    0.00307592      -9.00475   0.000669679   0.000669129    0.00107854
         8.45     0.0153407    0.00320173      -9.00452   0.000662754   0.000829855    0.00094663
          8.5     0.0141667    0.00335034      -9.00427   0.000653533   0.000990553   0.000809914
         8.55     0.0129387    0.00352169      -9.00401   0.000641999    0.00115074   0.000668746
          8.6     0.0116598    0.00371566      -9.00374   0.000628143    0.00130995   0.000523503
         8.65     0.0103329    0.00393206      -9.00346   0.000611961    0.00146769   0.000374578
          8.7    0.00896149    0.00417066      -9.00317   0.000593462    0.00162347   0.000222384
         8.75    0.00754889    0.00443114      -9.00287    0.00057266    0.00177683  6.73477e-005
          8.8    0.00609874    0.00471315      -9.00256   0.000549578    0.00192728 -9.00877e-005
         8.85    0.00461482    0.00501627      -9.00224   0.000524248    0.00207436  -0.000249467
          8.9    0.00310101    0.00534001      -9.00192    0.00049671    0.00221759  -0.000410322
         8.95    0.00156136    0.00568385      -9.00159   0.000467013    0.00235652  -0.000572175
            9  2.77475e-016    0.00604718      -9.00125   0.000435213    0.00249071   -0.00073454
         9.05    -0.0015788    0.00642935      -9.00091   0.000401376    0.00261971  -0.000896921
          9.1    -0.0031707    0.00682966      -9.00056   0.000365575    0.00274309   -0.00105882
         9.15   -0.00477125    0.00724734      -9.00021   0.000327892    0.00286046   -0.00121973
          9.2   -0.00637596    0.00768159      -8.99986   0.000288415     0.0029714   -0.00137915
         9.25   -0.00798025    0.00813154      -8.99951   0.000247241    0.00307554   -0.00153657
          9.3   -0.00957953    0.00859627      -8.99915   0.000204475    0.00317251   -0.00169149
         9.35    -0.0111691    0.00907483      -8.99879   0.000160228    0.00326197    -0.0018434
          9.4    -0.0127444     0.0095662      -8.99844   0.000114618    0.00334359   -0.00199181
         9.45    -0.0143007     0.0100693      -8.99809  6.77702e-005    0.00341706   -0.00213624
          9.5    -0.0158333     0.0105831      -8.99773  1.98142e-005     0.0034821   -0.00227619
         9.55    -0.0173377     0.0111065      -8.99738  -2.9113e-005    0.00353845    -0.0024112
          9.6    -0.0188091     0.0116382      -8.99704   -7.887e-005    0.00358588   -0.00254081
         9.65    -0.0202431     0.0121771       -8.9967   -0.00012931    0.00362416   -0.00266457
          9.7    -0.0216352     0.0127218      -8.99637  -0.000180283    0.00365311   -0.00278207
         9.75     -0.022981     0.0132713      -8.99604  -0.000231634    0.00367257   -0.00289287
          9.8    -0.0242761     0.0138241      -8.99572  -0.000283204     0.0036824   -0.00299661
         9.85    -0.0255163     0.0143789      -8.99541  -0.000334834    0.00368251   -0.00309289
          9.9    -0.0266976     0.0149344       -8.9951  -0.000386359     0.0036728   -0.00318138
         9.95    -0.0278159     0.0154893      -8.99481  -0.000437614    0.00365323   -0.00326173
           10    -0.0288675     0.0160421      -8.99453  -0.000488435    0.00362377   -0.00333364
        10.05    -0.0298487     0.0165915      -8.99425  -0.000538652    0.00358442   -0.00339684
