hotint output data
notes: time (s), wave elevation (m), surge (m), heave (m), pitch (rads), flap 1 pitch (rads), flap 2 pitch (rads)
amplitude: -0.1m, period: 8.75s
            0            -0 -6.49119e-007            -9  9.81261e-009  -7.6494e-007 -1.89943e-007
         0.05   5.9827e-006  -3.4307e-006            -9  4.00603e-008 -3.76449e-006  -8.8778e-007
          0.1  2.39154e-005 -9.52785e-006      -9.00001  7.51002e-008 -9.58722e-006 -2.10653e-006
         0.15  5.37518e-005 -1.95986e-005      -9.00002  8.50072e-008 -1.80068e-005 -3.63222e-006
          0.2   9.5415e-005 -3.42259e-005      -9.00004  4.55812e-008 -2.88063e-005  -5.2804e-006
         0.25   0.000148797 -5.39246e-005      -9.00006 -6.21016e-008 -4.17749e-005 -6.89207e-006
          0.3   0.000213761 -7.91458e-005      -9.00008 -2.52121e-007  -5.6708e-005 -8.33151e-006
         0.35   0.000290138  -0.000110282      -9.00011 -5.34109e-007 -7.34072e-005 -9.48372e-006
          0.4   0.000377731  -0.000147671      -9.00015 -9.13582e-007  -9.1677e-005 -1.02513e-005
         0.45   0.000476312  -0.000191599      -9.00018 -1.39226e-006  -0.000111325 -1.05528e-005
          0.5   0.000585625  -0.000242304      -9.00022 -1.96842e-006  -0.000132167 -1.03218e-005
         0.55   0.000705385  -0.000299975      -9.00027 -2.63724e-006  -0.000154022 -9.50523e-006
          0.6   0.000835281  -0.000364761      -9.00032 -3.39113e-006  -0.000176718  -8.0625e-006
         0.65   0.000974972  -0.000436764      -9.00037 -4.22005e-006  -0.000200092 -5.96368e-006
          0.7    0.00112409   -0.00051605      -9.00043 -5.11188e-006  -0.000223987 -3.18871e-006
         0.75    0.00128225  -0.000602647      -9.00049 -6.05273e-006  -0.000248259   2.7341e-007
          0.8    0.00144902   -0.00069655      -9.00056 -7.02728e-006  -0.000272772   4.4257e-006
         0.85    0.00162398   -0.00079772      -9.00063 -8.01913e-006  -0.000297401  9.26436e-006
          0.9    0.00180664   -0.00090609       -9.0007 -9.01104e-006  -0.000322032  1.47796e-005
         0.95    0.00199653   -0.00102157      -9.00078  -9.9853e-006   -0.00034656  2.09566e-005
            1    0.00219313   -0.00114403      -9.00086 -1.09239e-005  -0.000370891  2.77759e-005
         1.05    0.00239591   -0.00127334      -9.00094  -1.1809e-005  -0.000394941  3.52145e-005
          1.1    0.00260433   -0.00140934      -9.00103 -1.26228e-005  -0.000418634  4.32462e-005
         1.15    0.00281782   -0.00155184      -9.00112 -1.33481e-005  -0.000441903  5.18422e-005
          1.2    0.00303579   -0.00170066      -9.00121 -1.39684e-005  -0.000464691  6.09719e-005
         1.25    0.00325763   -0.00185558      -9.00131 -1.44681e-005  -0.000486944  7.06027e-005
          1.3    0.00348274   -0.00201639      -9.00141 -1.48326e-005  -0.000508618  8.07008e-005
         1.35    0.00371047   -0.00218285      -9.00151 -1.50482e-005  -0.000529673  9.12317e-005
          1.4     0.0039402   -0.00235472      -9.00161 -1.51028e-005  -0.000550074    0.00010216
         1.45    0.00417125   -0.00253176      -9.00172 -1.49854e-005  -0.000569788   0.000113449
          1.5    0.00440298   -0.00271371      -9.00183 -1.46866e-005  -0.000588785   0.000125062
         1.55     0.0046347   -0.00290031      -9.00194 -1.41982e-005   -0.00060704   0.000136963
          1.6    0.00486573   -0.00309128      -9.00205 -1.35137e-005  -0.000624526   0.000149114
         1.65    0.00509539   -0.00328637      -9.00216  -1.2628e-005  -0.000641217   0.000161477
          1.7    0.00532299   -0.00348529      -9.00227 -1.15374e-005  -0.000657089   0.000174014
         1.75    0.00554783   -0.00368777      -9.00239   -1.024e-005  -0.000672117   0.000186685
          1.8    0.00576922   -0.00389351       -9.0025  -8.7351e-006  -0.000686276   0.000199451
         1.85    0.00598645   -0.00410223      -9.00261 -7.02349e-006  -0.000699538   0.000212272
          1.9    0.00619885   -0.00431363      -9.00273 -5.10744e-006  -0.000711878   0.000225107
         1.95     0.0064057   -0.00452742      -9.00284 -2.99055e-006  -0.000723267   0.000237913
            2    0.00660633   -0.00474329      -9.00295 -6.77785e-007  -0.000733678   0.000250647
         2.05    0.00680005   -0.00496094      -9.00306  1.82461e-006  -0.000743082   0.000263266
          2.1    0.00698619   -0.00518005      -9.00317  4.50915e-006   -0.00075145   0.000275723
         2.15    0.00716407   -0.00540032      -9.00328  7.36713e-006  -0.000758754   0.000287973
          2.2    0.00733304    -0.0056214      -9.00339  1.03887e-005  -0.000764966   0.000299968
         2.25    0.00749245   -0.00584299      -9.00349  1.35628e-005  -0.000770058   0.000311659
          2.3    0.00764166   -0.00606474      -9.00359  1.68776e-005  -0.000774002   0.000322998
         2.35    0.00778006   -0.00628633      -9.00369  2.03199e-005  -0.000776772   0.000333935
          2.4    0.00790704    -0.0065074      -9.00378  2.38758e-005  -0.000778344   0.000344419
         2.45    0.00802201   -0.00672761      -9.00387  2.75302e-005  -0.000778696   0.000354399
          2.5     0.0081244   -0.00694661      -9.00396  3.12674e-005  -0.000777806   0.000363823
         2.55    0.00821365   -0.00716404      -9.00404  3.50707e-005  -0.000775657   0.000372641
          2.6    0.00828924   -0.00737956      -9.00412  3.89227e-005  -0.000772232     0.0003808
         2.65    0.00835065   -0.00759278      -9.00419  4.28053e-005  -0.000767517    0.00038825
          2.7    0.00839739   -0.00780336      -9.00426  4.66996e-005  -0.000761498   0.000394941
         2.75      0.008429   -0.00801093      -9.00432  5.05862e-005  -0.000754168   0.000400824
          2.8    0.00844505   -0.00821511      -9.00437  5.44453e-005  -0.000745516   0.000405851
         2.85    0.00844512   -0.00841553      -9.00442  5.82567e-005  -0.000735539   0.000409975
          2.9    0.00842882   -0.00861184      -9.00447  6.19995e-005  -0.000724233   0.000413151
         2.95     0.0083958   -0.00880364       -9.0045  6.56529e-005  -0.000711596   0.000415337
            3    0.00834573   -0.00899058      -9.00453  6.91957e-005  -0.000697631   0.000416491
         3.05    0.00827831   -0.00917227      -9.00455  7.26068e-005  -0.000682339   0.000416575
          3.1    0.00819328   -0.00934836      -9.00457  7.58649e-005  -0.000665726   0.000415551
         3.15    0.00809039   -0.00951847      -9.00457  7.89488e-005    -0.0006478   0.000413386
          3.2    0.00796945   -0.00968223      -9.00457  8.18376e-005  -0.000628572   0.000410049
         3.25    0.00783028   -0.00983928      -9.00456  8.45105e-005  -0.000608054    0.00040551
          3.3    0.00767275   -0.00998925      -9.00454  8.69473e-005   -0.00058626   0.000399744
         3.35    0.00749675    -0.0101318      -9.00451   8.9128e-005  -0.000563209   0.000392727
          3.4    0.00730223    -0.0102665      -9.00448  9.10331e-005   -0.00053892    0.00038444
         3.45    0.00708914    -0.0103931      -9.00443  9.26439e-005  -0.000513418   0.000374865
          3.5    0.00685749    -0.0105112      -9.00437  9.39422e-005  -0.000486729   0.000363988
         3.55    0.00660733    -0.0106204      -9.00431  9.49107e-005  -0.000458882   0.000351799
          3.6    0.00633872    -0.0107205      -9.00423  9.55328e-005  -0.000429909   0.000338291
         3.65    0.00605178    -0.0108111      -9.00415  9.57929e-005  -0.000399847   0.000323459
          3.7    0.00574666    -0.0108918      -9.00405  9.56763e-005  -0.000368735   0.000307303
         3.75    0.00542355    -0.0109623      -9.00395  9.51692e-005  -0.000336614   0.000289826
          3.8    0.00508266    -0.0110224      -9.00383  9.42591e-005   -0.00030353   0.000271037
         3.85    0.00472427    -0.0110717      -9.00371  9.29345e-005  -0.000269532   0.000250945
          3.9    0.00434865    -0.0111099      -9.00357  9.11851e-005  -0.000234669   0.000229566
         3.95    0.00395616    -0.0111368      -9.00343  8.90019e-005  -0.000198997   0.000206918
            4    0.00354716    -0.0111521      -9.00327   8.6377e-005  -0.000162572   0.000183025
         4.05    0.00312205    -0.0111554       -9.0031  8.33042e-005  -0.000125452   0.000157915
          4.1    0.00268127    -0.0111467      -9.00292  7.97784e-005 -8.76998e-005   0.000131619
         4.15    0.00222531    -0.0111256      -9.00274   7.5796e-005 -4.93771e-005   0.000104174
          4.2    0.00175467    -0.0110919      -9.00254   7.1355e-005 -1.05492e-005  7.56193e-005
         4.25    0.00126989    -0.0110454      -9.00233  6.64547e-005  2.87175e-005  4.60004e-005
          4.3   0.000771561     -0.010986      -9.00211  6.10964e-005  6.83552e-005  1.53666e-005
         4.35   0.000260289    -0.0109134      -9.00188  5.52824e-005   0.000108295 -1.62286e-005
          4.4  -0.000263281    -0.0108275      -9.00165  4.90172e-005   0.000148466 -4.87276e-005
         4.45  -0.000798476    -0.0107281       -9.0014  4.23065e-005   0.000188798 -8.20683e-005
          4.5   -0.00134459    -0.0106152      -9.00114   3.5158e-005   0.000229219  -0.000116185
         4.55   -0.00190089    -0.0104886      -9.00088  2.75809e-005   0.000269657  -0.000151007
          4.6   -0.00246661    -0.0103482       -9.0006  1.95861e-005   0.000310038  -0.000186462
         4.65   -0.00304095     -0.010194      -9.00032  1.11863e-005   0.000350289  -0.000222472
          4.7   -0.00362312    -0.0100258      -9.00002  2.39584e-006   0.000390335  -0.000258957
         4.75   -0.00421225   -0.00984376      -8.99972 -6.76937e-006   0.000430104  -0.000295832
          4.8   -0.00480749   -0.00964774      -8.99941 -1.62917e-005   0.000469519   -0.00033301
         4.85   -0.00540794   -0.00943777      -8.99909 -2.61518e-005   0.000508507  -0.000370401
          4.9    -0.0060127   -0.00921389      -8.99877  -3.6329e-005   0.000546994  -0.000407913
         4.95   -0.00662084   -0.00897613      -8.99844 -4.68009e-005   0.000584905  -0.000445451
            5    -0.0072314   -0.00872456       -8.9981 -5.75435e-005   0.000622165  -0.000482917
         5.05   -0.00784342   -0.00845926      -8.99775 -6.85317e-005   0.000658703  -0.000520213
          5.1   -0.00845591   -0.00818036       -8.9974 -7.97387e-005   0.000694444  -0.000557236
         5.15   -0.00906789   -0.00788796      -8.99704 -9.11365e-005   0.000729318  -0.000593884
          5.2   -0.00967834   -0.00758223      -8.99668  -0.000102696   0.000763252  -0.000630054
         5.25    -0.0102862   -0.00726333      -8.99631  -0.000114387   0.000796177   -0.00066564
          5.3    -0.0108906   -0.00693147      -8.99594  -0.000126177   0.000828025  -0.000700538
         5.35    -0.0114903   -0.00658685      -8.99557  -0.000138034   0.000858729  -0.000734641
          5.4    -0.0120843   -0.00622971      -8.99519  -0.000149925   0.000888223  -0.000767844
         5.45    -0.0126717   -0.00586033      -8.99481  -0.000161816   0.000916444  -0.000800042
          5.5    -0.0132512   -0.00547896      -8.99443  -0.000173671   0.000943329  -0.000831129
         5.55     -0.013822   -0.00508593      -8.99404  -0.000185454    0.00096882  -0.000861002
          5.6    -0.0143829   -0.00468156      -8.99365   -0.00019713   0.000992859  -0.000889559
         5.65    -0.0149329   -0.00426619      -8.99327  -0.000208662    0.00101539  -0.000916698
          5.7    -0.0154709   -0.00384019      -8.99288  -0.000220012    0.00103636  -0.000942322
         5.75     -0.015996   -0.00340396       -8.9925  -0.000231144    0.00105572  -0.000966334
          5.8     -0.016507    -0.0029579      -8.99211   -0.00024202    0.00107342   -0.00098864
         5.85     -0.017003   -0.00250245      -8.99173  -0.000252602    0.00108941   -0.00100915
          5.9    -0.0174829   -0.00203806      -8.99135  -0.000262854    0.00110366   -0.00102778
         5.95    -0.0179457   -0.00156519      -8.99097  -0.000272739    0.00111611   -0.00104444
            6    -0.0183906   -0.00108435      -8.99059  -0.000282219    0.00112673   -0.00105906
         6.05    -0.0188164  -0.000596031      -8.99022   -0.00029126    0.00113548   -0.00107156
          6.1    -0.0192222  -0.000100778      -8.98986  -0.000299824    0.00114234   -0.00108186
         6.15    -0.0196072   0.000400868       -8.9895  -0.000307878    0.00114726   -0.00108991
          6.2    -0.0199704    0.00090834      -8.98914  -0.000315388    0.00115022   -0.00109565
         6.25     -0.020311    0.00142106      -8.98879  -0.000322321     0.0011512   -0.00109901
          6.3     -0.020628    0.00193842      -8.98845  -0.000328644    0.00115017   -0.00109994
         6.35    -0.0209207    0.00245981      -8.98812  -0.000334327    0.00114711   -0.00109841
          6.4    -0.0211883    0.00298459       -8.9878  -0.000339341    0.00114201   -0.00109437
         6.45    -0.0214299    0.00351214      -8.98748  -0.000343657    0.00113485   -0.00108778
          6.5    -0.0216448    0.00404177      -8.98718   -0.00034725    0.00112562   -0.00107863
         6.55    -0.0218325    0.00457282      -8.98688  -0.000350093    0.00111431   -0.00106688
          6.6     -0.021992     0.0051046       -8.9866  -0.000352165    0.00110092   -0.00105252
         6.65    -0.0221229    0.00563642      -8.98632  -0.000353443    0.00108545   -0.00103554
          6.7    -0.0222246    0.00616757      -8.98606  -0.000353907     0.0010679   -0.00101593
         6.75    -0.0222964    0.00669733      -8.98582   -0.00035354    0.00104827  -0.000993696
          6.8    -0.0223378    0.00722498      -8.98558  -0.000352326    0.00102658  -0.000968844
         6.85    -0.0223485    0.00774977      -8.98536  -0.000350251    0.00100284  -0.000941387
          6.9    -0.0223279    0.00827097      -8.98516  -0.000347304   0.000977051  -0.000911342
         6.95    -0.0222756    0.00878783      -8.98497  -0.000343474   0.000949247  -0.000878735
            7    -0.0221913    0.00929961      -8.98479  -0.000338754   0.000919444  -0.000843595
         7.05    -0.0220747    0.00980554      -8.98463   -0.00033314   0.000887669  -0.000805958
          7.1    -0.0219256     0.0103049      -8.98449  -0.000326628    0.00085395  -0.000765865
         7.15    -0.0217437     0.0107968      -8.98437  -0.000319217   0.000818319  -0.000723364
          7.2    -0.0215289     0.0112807      -8.98426  -0.000310909    0.00078081  -0.000678507
         7.25    -0.0212811     0.0117557      -8.98417  -0.000301708   0.000741462  -0.000631351
          7.3    -0.0210001     0.0122211       -8.9841   -0.00029162   0.000700316  -0.000581958
         7.35     -0.020686     0.0126761      -8.98405  -0.000280654   0.000657417  -0.000530396
          7.4    -0.0203389       0.01312      -8.98401  -0.000268819   0.000612812  -0.000476739
         7.45    -0.0199588      0.013552        -8.984   -0.00025613   0.000566553  -0.000421062
          7.5    -0.0195458     0.0139714      -8.98401  -0.000242601   0.000518693  -0.000363448
         7.55    -0.0191002     0.0143776      -8.98404   -0.00022825   0.000469288  -0.000303983
          7.6    -0.0186221     0.0147697      -8.98408  -0.000213096     0.0004184  -0.000242758
         7.65     -0.018112     0.0151472      -8.98415  -0.000197163    0.00036609  -0.000179866
          7.7      -0.01757     0.0155092      -8.98424  -0.000180472   0.000312424  -0.000115408
         7.75    -0.0169968     0.0158552      -8.98435  -0.000163051   0.000257471 -4.94845e-005
          7.8    -0.0163925     0.0161845      -8.98449  -0.000144928   0.000201301  1.77982e-005
         7.85    -0.0157579     0.0164964      -8.98464  -0.000126132   0.000143989  8.63308e-005
          7.9    -0.0150934     0.0167904      -8.98482  -0.000106696  8.56093e-005   0.000156001
         7.95    -0.0143997     0.0170658      -8.98502 -8.66524e-005  2.62414e-005   0.000226693
            8    -0.0136773     0.0173221      -8.98524 -6.60379e-005 -3.40343e-005    0.00029829
         8.05    -0.0129271     0.0175586      -8.98548 -4.48893e-005 -9.51349e-005    0.00037067
          8.1    -0.0121497      0.017775      -8.98574 -2.32452e-005  -0.000156976   0.000443711
         8.15    -0.0113459     0.0179706      -8.98603 -1.14574e-006   -0.00021947   0.000517289
          8.2    -0.0105167     0.0181449      -8.98634  2.13674e-005  -0.000282528   0.000591278
         8.25   -0.00966281     0.0182976      -8.98667  4.42513e-005  -0.000346061   0.000665549
          8.3    -0.0087853     0.0184282      -8.98703   6.7462e-005  -0.000409976   0.000739974
         8.35   -0.00788513     0.0185363       -8.9874  9.09543e-005   -0.00047418   0.000814424
          8.4   -0.00696332     0.0186216       -8.9878   0.000114682  -0.000538578   0.000888769
         8.45   -0.00602094     0.0186836      -8.98821   0.000138598  -0.000603073   0.000962878
          8.5   -0.00505911     0.0187221      -8.98865   0.000162655  -0.000667569    0.00103662
         8.55   -0.00407899     0.0187368      -8.98911   0.000186804  -0.000731966    0.00110987
          8.6   -0.00308177     0.0187275       -8.9896   0.000210996  -0.000796166     0.0011825
         8.65   -0.00206868     0.0186939       -8.9901   0.000235183  -0.000860067    0.00125437
          8.7   -0.00104099     0.0186359      -8.99062   0.000259314  -0.000923571    0.00132536
         8.75 -2.40291e-016     0.0185534      -8.99116    0.00028334  -0.000986574    0.00139535
          8.8    0.00105296     0.0184462      -8.99172   0.000307211   -0.00104898     0.0014642
         8.85    0.00211651     0.0183143       -8.9923   0.000330877   -0.00111068    0.00153181
          8.9    0.00318927     0.0181576      -8.99289    0.00035429   -0.00117157    0.00159804
         8.95    0.00426982     0.0179762      -8.99351   0.000377398   -0.00123156    0.00166278
            9    0.00535671     0.0177701      -8.99414   0.000400155   -0.00129054    0.00172591
         9.05    0.00644846     0.0175393      -8.99479   0.000422511   -0.00134841    0.00178732
          9.1    0.00754359     0.0172841      -8.99545    0.00044442   -0.00140508    0.00184689
         9.15    0.00864059     0.0170045      -8.99613   0.000465833   -0.00146044    0.00190452
          9.2    0.00973793     0.0167008      -8.99682   0.000486705    -0.0015144     0.0019601
         9.25     0.0108341     0.0163732      -8.99753   0.000506991   -0.00156686    0.00201352
          9.3     0.0119274      0.016022      -8.99825   0.000526645   -0.00161773    0.00206468
         9.35     0.0130165     0.0156474      -8.99899   0.000545626   -0.00166691    0.00211348
          9.4     0.0140996     0.0152499      -8.99973   0.000563891   -0.00171431    0.00215983
         9.45     0.0151752     0.0148298      -9.00049   0.000581399   -0.00175985    0.00220363
          9.5     0.0162418     0.0143875      -9.00125    0.00059811   -0.00180343    0.00224478
         9.55     0.0172977     0.0139236      -9.00203   0.000613986   -0.00184498     0.0022832
          9.6     0.0183414     0.0134384      -9.00281   0.000628989    -0.0018844    0.00231881
         9.65     0.0193712     0.0129325       -9.0036   0.000643085   -0.00192163     0.0023515
          9.7     0.0203856     0.0124065      -9.00439   0.000656239   -0.00195658     0.0023812
         9.75      0.021383      0.011861       -9.0052   0.000668418   -0.00198919    0.00240784
          9.8     0.0223619     0.0112966        -9.006   0.000679591   -0.00201937    0.00243132
         9.85     0.0233206      0.010714      -9.00681   0.000689729   -0.00204708    0.00245158
          9.9     0.0242578     0.0101138      -9.00762   0.000698802   -0.00207223    0.00246854
         9.95     0.0251717    0.00949685      -9.00844   0.000706786   -0.00209477    0.00248213
           10      0.026061    0.00886378      -9.00925   0.000713654   -0.00211464    0.00249227
        10.05     0.0269242    0.00821542      -9.01006   0.000719383    -0.0021318    0.00249892
