hotint output data
notes: time (s), wave elevation (m), surge (m), heave (m), pitch (rads), flap 1 pitch (rads), flap 2 pitch (rads)
amplitude: -0.1m, period: 13s
            0            -0 -3.44813e-007            -9  7.03955e-009 -3.16772e-007  2.90693e-007
         0.05  4.02729e-006 -1.75009e-006            -9  3.54369e-008 -1.57643e-006  1.42544e-006
          0.1  1.61045e-005  -4.6427e-006      -9.00001  9.27614e-008 -4.07119e-006  3.61262e-006
         0.15  3.62174e-005 -9.14197e-006      -9.00001  1.79269e-007 -7.76203e-006  6.74661e-006
          0.2  6.43426e-005 -1.53805e-005      -9.00002  2.94662e-007 -1.26005e-005  1.07273e-005
         0.25   0.000100447 -2.35017e-005      -9.00004  4.38261e-007 -1.85298e-005  1.54595e-005
          0.3   0.000144489 -3.36572e-005      -9.00005  6.09161e-007 -2.54867e-005  2.08536e-005
         0.35   0.000196417 -4.60051e-005      -9.00007  8.06355e-007 -3.34032e-005  2.68255e-005
          0.4   0.000256169 -6.07078e-005      -9.00009  1.02886e-006 -4.22068e-005  3.32964e-005
         0.45   0.000323676 -7.79305e-005      -9.00011  1.27582e-006 -5.18219e-005  4.01924e-005
          0.5   0.000398859 -9.78393e-005      -9.00014  1.54658e-006 -6.21718e-005   4.7446e-005
         0.55    0.00048163    -0.0001206      -9.00017  1.84074e-006   -7.318e-005  5.49954e-005
          0.6   0.000571891  -0.000146378       -9.0002  2.15823e-006 -8.47714e-005  6.27852e-005
         0.65   0.000669537  -0.000175333      -9.00023  2.49931e-006 -9.68725e-005   7.0766e-005
          0.7   0.000774452  -0.000207625      -9.00027  2.86464e-006  -0.000109413  7.88947e-005
         0.75   0.000886512  -0.000243406      -9.00032  3.25525e-006  -0.000122328  8.71344e-005
          0.8    0.00100559  -0.000282827      -9.00036  3.67254e-006  -0.000135554  9.54542e-005
         0.85    0.00113153  -0.000326028      -9.00041   4.1183e-006  -0.000149036   0.000103829
          0.9     0.0012642  -0.000373149      -9.00046  4.59465e-006  -0.000162721    0.00011224
         0.95    0.00140344  -0.000424318      -9.00052  5.10405e-006  -0.000176564   0.000120671
            1    0.00154908   -0.00047966      -9.00058  5.64923e-006  -0.000190523   0.000129113
         1.05    0.00170094  -0.000539292      -9.00064   6.2332e-006  -0.000204562    0.00013756
          1.1    0.00185885  -0.000603324      -9.00071  6.85914e-006   -0.00021865   0.000146009
         1.15    0.00202262  -0.000671859      -9.00078  7.53043e-006  -0.000232761    0.00015446
          1.2    0.00219205  -0.000744993      -9.00085  8.25051e-006  -0.000246871   0.000162917
         1.25    0.00236694  -0.000822817      -9.00093  9.02293e-006  -0.000260963   0.000171382
          1.3    0.00254707  -0.000905412      -9.00101  9.85121e-006  -0.000275021   0.000179863
         1.35    0.00273223  -0.000992856       -9.0011  1.07388e-005  -0.000289033   0.000188365
          1.4     0.0029222   -0.00108522      -9.00119  1.16892e-005  -0.000302987   0.000196894
         1.45    0.00311674   -0.00118256      -9.00128  1.27056e-005  -0.000316876   0.000205456
          1.5    0.00331561   -0.00128495      -9.00137   1.3791e-005  -0.000330691   0.000214056
         1.55    0.00351858   -0.00139242      -9.00147  1.49482e-005  -0.000344426   0.000222697
          1.6    0.00372539   -0.00150504      -9.00158  1.61799e-005  -0.000358074   0.000231381
         1.65    0.00393579   -0.00162284      -9.00168  1.74883e-005  -0.000371628   0.000240108
          1.7    0.00414952   -0.00174586       -9.0018  1.88752e-005  -0.000385081   0.000248877
         1.75    0.00436631   -0.00187413      -9.00191  2.03421e-005  -0.000398424   0.000257681
          1.8    0.00458589   -0.00200768      -9.00203  2.18902e-005  -0.000411649   0.000266516
         1.85    0.00480799   -0.00214653      -9.00215  2.35201e-005  -0.000424745    0.00027537
          1.9    0.00503233    -0.0022907      -9.00227   2.5232e-005    -0.0004377   0.000284233
         1.95    0.00525861    -0.0024402       -9.0024  2.70257e-005  -0.000450503    0.00029309
            2    0.00548656   -0.00259505      -9.00253  2.89005e-005   -0.00046314   0.000301925
         2.05    0.00571588   -0.00275524      -9.00266  3.08552e-005  -0.000475595    0.00031072
          2.1    0.00594628   -0.00292078       -9.0028  3.28879e-005  -0.000487852   0.000319453
         2.15    0.00617745   -0.00309166      -9.00294  3.49965e-005  -0.000499895   0.000328103
          2.2     0.0064091   -0.00326789      -9.00308  3.71783e-005  -0.000511707   0.000336645
         2.25    0.00664092   -0.00344943      -9.00322  3.94299e-005  -0.000523267   0.000345054
          2.3    0.00687261   -0.00363628      -9.00337  4.17476e-005  -0.000534559   0.000353303
         2.35    0.00710385   -0.00382842      -9.00352  4.41272e-005  -0.000545562   0.000361364
          2.4    0.00733434   -0.00402582      -9.00367  4.65638e-005  -0.000556258   0.000369208
         2.45    0.00756376   -0.00422845      -9.00382  4.90522e-005  -0.000566628   0.000376806
          2.5     0.0077918   -0.00443627      -9.00398  5.15867e-005  -0.000576653   0.000384128
         2.55    0.00801815   -0.00464925      -9.00414  5.41609e-005  -0.000586314   0.000391142
          2.6    0.00824249   -0.00486735       -9.0043  5.67682e-005  -0.000595595   0.000397819
         2.65     0.0084645    -0.0050905      -9.00446  5.94014e-005  -0.000604476   0.000404127
          2.7    0.00868388   -0.00531866      -9.00462   6.2053e-005  -0.000612942   0.000410034
         2.75     0.0089003   -0.00555177      -9.00478  6.47149e-005  -0.000620976    0.00041551
          2.8    0.00911345   -0.00578977      -9.00495  6.73787e-005  -0.000628562   0.000420522
         2.85    0.00932302   -0.00603259      -9.00511  7.00356e-005  -0.000635684   0.000425041
          2.9    0.00952869   -0.00628015      -9.00528  7.26766e-005  -0.000642329   0.000429035
         2.95    0.00973015   -0.00653238      -9.00544  7.52921e-005  -0.000648482   0.000432473
            3    0.00992709   -0.00678919      -9.00561  7.78724e-005  -0.000654129   0.000435324
         3.05     0.0101192   -0.00705049      -9.00578  8.04076e-005  -0.000659258    0.00043756
          3.1     0.0103062    -0.0073162      -9.00594  8.28872e-005  -0.000663857    0.00043915
         3.15     0.0104877    -0.0075862      -9.00611   8.5301e-005  -0.000667912   0.000440066
          3.2     0.0106636    -0.0078604      -9.00628  8.76382e-005  -0.000671414   0.000440278
         3.25     0.0108333    -0.0081387      -9.00644  8.98881e-005  -0.000674352   0.000439761
          3.3     0.0109968   -0.00842096      -9.00661  9.20399e-005  -0.000676715   0.000438487
         3.35     0.0111536   -0.00870708      -9.00677  9.40826e-005  -0.000678495   0.000436431
          3.4     0.0113036   -0.00899692      -9.00693  9.60054e-005  -0.000679682   0.000433568
         3.45     0.0114463   -0.00929037      -9.00709  9.77972e-005   -0.00068027   0.000429875
          3.5     0.0115816   -0.00958727      -9.00725  9.94473e-005   -0.00068025   0.000425329
         3.55     0.0117092   -0.00988749       -9.0074   0.000100945  -0.000679616   0.000419911
          3.6     0.0118287    -0.0101909      -9.00756   0.000102279  -0.000678364     0.0004136
         3.65       0.01194    -0.0104973      -9.00771    0.00010344  -0.000676489   0.000406379
          3.7     0.0120428    -0.0108066      -9.00785   0.000104417  -0.000673987   0.000398231
         3.75     0.0121368    -0.0111185        -9.008     0.0001052  -0.000670856   0.000389142
          3.8     0.0122218     -0.011433      -9.00814   0.000105779  -0.000667095   0.000379099
         3.85     0.0122975    -0.0117499      -9.00828   0.000106145  -0.000662703    0.00036809
          3.9     0.0123637    -0.0120689      -9.00841   0.000106289   -0.00065768   0.000356107
         3.95     0.0124203    -0.0123899      -9.00854   0.000106203  -0.000652029   0.000343141
            4     0.0124669    -0.0127127      -9.00866   0.000105877  -0.000645751   0.000329186
         4.05     0.0125034    -0.0130371      -9.00879   0.000105304   -0.00063885   0.000314239
          4.1     0.0125295     -0.013363       -9.0089   0.000104476   -0.00063133   0.000298297
         4.15     0.0125451      -0.01369      -9.00901   0.000103388  -0.000623195    0.00028136
          4.2       0.01255    -0.0140179      -9.00912   0.000102032  -0.000614451    0.00026343
         4.25      0.012544    -0.0143467      -9.00922   0.000100403  -0.000605103    0.00024451
          4.3     0.0125269     -0.014676      -9.00931  9.84958e-005  -0.000595159   0.000224605
         4.35     0.0124986    -0.0150056       -9.0094  9.63058e-005  -0.000584624   0.000203723
          4.4     0.0124589    -0.0153354      -9.00948  9.38291e-005  -0.000573508   0.000181873
         4.45     0.0124076     -0.015665      -9.00955  9.10626e-005  -0.000561817   0.000159067
          4.5     0.0123448    -0.0159942      -9.00962  8.80039e-005  -0.000549559   0.000135317
         4.55     0.0122701    -0.0163228      -9.00968  8.46513e-005  -0.000536744   0.000110639
          4.6     0.0121835    -0.0166505      -9.00973  8.10038e-005   -0.00052338  8.50503e-005
         4.65      0.012085    -0.0169772      -9.00978   7.7061e-005  -0.000509477  5.85692e-005
          4.7     0.0119743    -0.0173025      -9.00982  7.28236e-005  -0.000495044  3.12171e-005
         4.75     0.0118514    -0.0176261      -9.00985  6.82928e-005  -0.000480092  3.01705e-006
          4.8     0.0117163    -0.0179479      -9.00987  6.34707e-005   -0.00046463 -2.60059e-005
         4.85     0.0115688    -0.0182676      -9.00988  5.83602e-005   -0.00044867  -5.5825e-005
          4.9      0.011409    -0.0185849      -9.00988   5.2965e-005  -0.000432222 -8.64114e-005
         4.95     0.0112368    -0.0188996      -9.00988  4.72895e-005  -0.000415299  -0.000117735
            5      0.011052    -0.0192113      -9.00987   4.1339e-005  -0.000397913  -0.000149762
         5.05     0.0108548    -0.0195198      -9.00984  3.51194e-005  -0.000380074   -0.00018246
          5.1     0.0106451    -0.0198248      -9.00981  2.86377e-005  -0.000361797  -0.000215793
         5.15      0.010423    -0.0201262      -9.00977  2.19013e-005  -0.000343094  -0.000249723
          5.2     0.0101883    -0.0204235      -9.00972  1.49186e-005  -0.000323978  -0.000284211
         5.25    0.00994113    -0.0207165      -9.00965  7.69862e-006  -0.000304463  -0.000319219
          5.3    0.00968155     -0.021005      -9.00958  2.51137e-007  -0.000284562  -0.000354704
         5.35    0.00940958    -0.0212886       -9.0095  -7.4134e-006  -0.000264289  -0.000390624
          5.4    0.00912528    -0.0215672       -9.0094 -1.52839e-005  -0.000243658  -0.000426936
         5.45     0.0088287    -0.0218403       -9.0093 -2.33484e-005  -0.000222682  -0.000463595
          5.5    0.00851992    -0.0221078      -9.00919 -3.15948e-005  -0.000201375  -0.000500555
         5.55    0.00819904    -0.0223694      -9.00906 -4.00099e-005  -0.000179752  -0.000537772
          5.6    0.00786615    -0.0226247      -9.00892 -4.85801e-005  -0.000157826  -0.000575199
         5.65    0.00752137    -0.0228736      -9.00877 -5.72915e-005  -0.000135612  -0.000612788
          5.7     0.0071648    -0.0231158      -9.00862 -6.61294e-005  -0.000113122  -0.000650493
         5.75    0.00679659    -0.0233509      -9.00844 -7.50788e-005 -9.03721e-005  -0.000688266
          5.8    0.00641689    -0.0235788      -9.00826 -8.41243e-005 -6.73753e-005   -0.00072606
         5.85    0.00602583    -0.0237991      -9.00807 -9.32499e-005 -4.41458e-005  -0.000763825
          5.9     0.0056236    -0.0240116      -9.00786   -0.00010244 -2.06977e-005  -0.000801517
         5.95    0.00521036    -0.0242161      -9.00765  -0.000111677  2.95461e-006  -0.000839085
            6    0.00478631    -0.0244122      -9.00742  -0.000120945  2.67969e-005  -0.000876484
         6.05    0.00435165    -0.0245998      -9.00718  -0.000130227  5.08148e-005  -0.000913667
          6.1    0.00390658    -0.0247786      -9.00693  -0.000139506  7.49935e-005  -0.000950587
         6.15    0.00345132    -0.0249483      -9.00666  -0.000148765  9.93183e-005  -0.000987199
          6.2    0.00298611    -0.0251088      -9.00639  -0.000157986   0.000123774   -0.00102346
         6.25    0.00251118    -0.0252597       -9.0061  -0.000167152   0.000148347   -0.00105931
          6.3    0.00202679    -0.0254009       -9.0058  -0.000176245    0.00017302   -0.00109473
         6.35     0.0015332    -0.0255321      -9.00549  -0.000185249   0.000197779   -0.00112966
          6.4    0.00103069    -0.0256531      -9.00517  -0.000194146   0.000222608   -0.00116406
         6.45   0.000519521    -0.0257638      -9.00483   -0.00020292   0.000247492    -0.0011979
          6.5  1.66226e-016    -0.0258638      -9.00449  -0.000211553   0.000272416   -0.00123112
         6.55  -0.000527575     -0.025953      -9.00413  -0.000220029   0.000297363    -0.0012637
          6.6   -0.00106289    -0.0260313      -9.00377  -0.000228331   0.000322317   -0.00129559
         6.65   -0.00160564    -0.0260984      -9.00339  -0.000236443   0.000347264   -0.00132675
          6.7   -0.00215548    -0.0261541        -9.003   -0.00024435   0.000372187   -0.00135715
         6.75   -0.00271208    -0.0261983      -9.00259  -0.000252036   0.000397069   -0.00138676
          6.8   -0.00327509    -0.0262309      -9.00218  -0.000259486   0.000421896   -0.00141554
         6.85   -0.00384415    -0.0262516      -9.00176  -0.000266686   0.000446651   -0.00144346
          6.9   -0.00441891    -0.0262603      -9.00133  -0.000273621   0.000471318   -0.00147048
         6.95     -0.004999    -0.0262568      -9.00088  -0.000280278   0.000495879   -0.00149658
            7   -0.00558403    -0.0262412      -9.00043  -0.000286644   0.000520319   -0.00152173
         7.05   -0.00617362    -0.0262131      -8.99997  -0.000292706   0.000544621    -0.0015459
          7.1   -0.00676738    -0.0261725      -8.99949  -0.000298452   0.000568768   -0.00156906
         7.15   -0.00736491    -0.0261194      -8.99901  -0.000303871   0.000592743   -0.00159118
          7.2   -0.00796579    -0.0260535      -8.99852  -0.000308953   0.000616527   -0.00161225
         7.25   -0.00856962    -0.0259749      -8.99802  -0.000313686   0.000640104   -0.00163223
          7.3   -0.00917597    -0.0258833      -8.99751  -0.000318062   0.000663456   -0.00165111
         7.35   -0.00978443    -0.0257788      -8.99699  -0.000322071   0.000686564   -0.00166887
          7.4    -0.0103946    -0.0256614      -8.99647  -0.000325706    0.00070941   -0.00168548
         7.45    -0.0110059    -0.0255308      -8.99593  -0.000328959   0.000731976   -0.00170093
          7.5    -0.0116181    -0.0253871      -8.99539  -0.000331824   0.000754242   -0.00171519
         7.55    -0.0122306    -0.0252303      -8.99484  -0.000334294   0.000776191   -0.00172826
          7.6     -0.012843    -0.0250604      -8.99429  -0.000336364   0.000797802   -0.00174011
         7.65    -0.0134548    -0.0248772      -8.99372   -0.00033803   0.000819056   -0.00175073
          7.7    -0.0140657    -0.0246808      -8.99316  -0.000339288   0.000839934   -0.00176011
         7.75     -0.014675    -0.0244713      -8.99258  -0.000340136   0.000860415   -0.00176824
          7.8    -0.0152824    -0.0242485        -8.992   -0.00034057   0.000880481    -0.0017751
         7.85    -0.0158874    -0.0240126      -8.99142  -0.000340589   0.000900111    -0.0017807
          7.9    -0.0164895    -0.0237636      -8.99083  -0.000340194   0.000919285     -0.001785
         7.95    -0.0170883    -0.0235014      -8.99024  -0.000339383   0.000937982   -0.00178802
            8    -0.0176833    -0.0232262      -8.98964  -0.000338157   0.000956181   -0.00178975
         8.05    -0.0182739     -0.022938      -8.98904  -0.000336519   0.000973863   -0.00179017
          8.1    -0.0188598    -0.0226369      -8.98844   -0.00033447   0.000991005    -0.0017893
         8.15    -0.0194404    -0.0223229      -8.98784  -0.000332014    0.00100759   -0.00178711
          8.2    -0.0200153    -0.0219962      -8.98723  -0.000329153    0.00102359   -0.00178362
         8.25     -0.020584    -0.0216568      -8.98662  -0.000325894    0.00103899   -0.00177881
          8.3    -0.0211461    -0.0213048      -8.98601   -0.00032224    0.00105376    -0.0017727
         8.35    -0.0217009    -0.0209404       -8.9854  -0.000318197    0.00106789   -0.00176528
          8.4    -0.0222482    -0.0205636      -8.98479  -0.000313773    0.00108136   -0.00175655
         8.45    -0.0227873    -0.0201746      -8.98419  -0.000308973    0.00109413   -0.00174652
          8.5    -0.0233179    -0.0197736      -8.98358  -0.000303806     0.0011062   -0.00173519
         8.55    -0.0238394    -0.0193606      -8.98297  -0.000298279    0.00111754   -0.00172257
          8.6    -0.0243514    -0.0189359      -8.98237  -0.000292401    0.00112814   -0.00170865
         8.65    -0.0248535    -0.0184996      -8.98176  -0.000286182    0.00113796   -0.00169345
          8.7    -0.0253451    -0.0180519      -8.98117  -0.000279631    0.00114699   -0.00167697
         8.75    -0.0258258     -0.017593      -8.98057  -0.000272758    0.00115522   -0.00165921
          8.8    -0.0262952    -0.0171231      -8.97998  -0.000265573    0.00116262   -0.00164019
         8.85    -0.0267528    -0.0166423      -8.97939  -0.000258087    0.00116918    -0.0016199
          8.9    -0.0271982    -0.0161508      -8.97881  -0.000250312    0.00117488   -0.00159837
         8.95    -0.0276309     -0.015649      -8.97824  -0.000242259     0.0011797    -0.0015756
            9    -0.0280505     -0.015137      -8.97767  -0.000233938    0.00118363   -0.00155159
         9.05    -0.0284566    -0.0146151      -8.97711  -0.000225363    0.00118666   -0.00152636
          9.1    -0.0288487    -0.0140834      -8.97655  -0.000216545    0.00118876   -0.00149992
         9.15    -0.0292265    -0.0135423        -8.976  -0.000207496    0.00118993   -0.00147228
          9.2    -0.0295895     -0.012992      -8.97547  -0.000198229    0.00119015   -0.00144345
         9.25    -0.0299374    -0.0124327      -8.97494  -0.000188755    0.00118942   -0.00141344
          9.3    -0.0302697    -0.0118648      -8.97442  -0.000179088    0.00118771   -0.00138227
         9.35     -0.030586    -0.0112885      -8.97391  -0.000169239    0.00118503   -0.00134995
          9.4    -0.0308861    -0.0107041      -8.97341  -0.000159221    0.00118137   -0.00131649
         9.45    -0.0311695    -0.0101119      -8.97292  -0.000149047    0.00117671   -0.00128192
          9.5    -0.0314358   -0.00951214      -8.97245  -0.000138728    0.00117105   -0.00124625
         9.55    -0.0316847   -0.00890517      -8.97198  -0.000128278    0.00116439    -0.0012095
          9.6    -0.0319159   -0.00829131      -8.97153  -0.000117707    0.00115673   -0.00117169
         9.65    -0.0321291   -0.00767085       -8.9711  -0.000107029    0.00114805   -0.00113284
          9.7    -0.0323239   -0.00704412      -8.97067 -9.62554e-005    0.00113836   -0.00109297
         9.75       -0.0325   -0.00641146      -8.97027 -8.53979e-005    0.00112767   -0.00105211
          9.8    -0.0326571   -0.00577319      -8.96987 -7.44683e-005    0.00111596   -0.00101029
         9.85     -0.032795   -0.00512966      -8.96949 -6.34782e-005    0.00110325  -0.000967527
          9.9    -0.0329133   -0.00448121      -8.96913 -5.24391e-005    0.00108954  -0.000923856
         9.95    -0.0330118    -0.0038282      -8.96879 -4.13621e-005    0.00107484  -0.000879309
           10    -0.0330903   -0.00317098      -8.96846 -3.02583e-005    0.00105915  -0.000833916
        10.05    -0.0331485   -0.00250991      -8.96815 -1.91388e-005    0.00104247  -0.000787713
