hotint output data
notes: time (s), wave elevation (m), surge (m), heave (m), pitch (rads), flap 1 pitch (rads), flap 2 pitch (rads)
amplitude: -0.1m, period: 7.75s
            0            -0 -6.86889e-007            -9  9.32938e-009 -1.02533e-006 -2.27114e-007
         0.05  6.75426e-006 -3.66028e-006            -9  3.44767e-008  -5.0285e-006 -1.06448e-006
          0.1  2.69949e-005 -1.02546e-005      -9.00001  5.03885e-008 -1.27473e-005 -2.53728e-006
         0.15  6.06553e-005 -2.12572e-005      -9.00002  1.67172e-008 -2.38138e-005 -4.40415e-006
          0.2   0.000107625 -3.73497e-005      -9.00004 -9.90689e-008 -3.78776e-005 -6.46105e-006
         0.25   0.000167749 -5.91175e-005      -9.00005 -3.22327e-007 -5.46022e-005 -8.53575e-006
          0.3   0.000240829  -8.7057e-005      -9.00007 -6.71851e-007 -7.36646e-005 -1.04846e-005
         0.35   0.000326625  -0.000121582       -9.0001 -1.16044e-006 -9.47553e-005 -1.21888e-005
          0.4   0.000424852  -0.000163031      -9.00013 -1.79538e-006  -0.000117574 -1.35507e-005
         0.45   0.000535186  -0.000211669      -9.00016 -2.57887e-006   -0.00014183 -1.44908e-005
          0.5    0.00065726  -0.000267697      -9.00019 -3.50857e-006  -0.000167247 -1.49472e-005
         0.55   0.000790668  -0.000331249      -9.00023 -4.57803e-006   -0.00019356 -1.48727e-005
          0.6   0.000934964    -0.0004024      -9.00027 -5.77717e-006   -0.00022052 -1.42337e-005
         0.65    0.00108967  -0.000481167      -9.00031 -7.09274e-006  -0.000247892 -1.30084e-005
          0.7    0.00125425  -0.000567517      -9.00036 -8.50877e-006  -0.000275456 -1.11853e-005
         0.75    0.00142817  -0.000661367      -9.00041  -1.0007e-005   -0.00030301 -8.76225e-006
          0.8    0.00161083  -0.000762588      -9.00047 -1.15675e-005  -0.000330368 -5.74535e-006
         0.85    0.00180161   -0.00087101      -9.00052 -1.31687e-005  -0.000357362 -2.14749e-006
          0.9    0.00199985  -0.000986426      -9.00058 -1.47884e-005  -0.000383838  2.01263e-006
         0.95    0.00220488   -0.00110859      -9.00064 -1.64034e-005   -0.00040966  6.71133e-006
            1    0.00241598   -0.00123724      -9.00071 -1.79906e-005  -0.000434707  1.19208e-005
         1.05    0.00263241   -0.00137207      -9.00077 -1.95268e-005  -0.000458872  1.76098e-005
          1.1    0.00285343   -0.00151276      -9.00084 -2.09893e-005  -0.000482063  2.37443e-005
         1.15    0.00307824   -0.00165895      -9.00091 -2.23561e-005  -0.000504199   3.0288e-005
          1.2    0.00330604    -0.0018103      -9.00098  -2.3606e-005  -0.000525211   3.7203e-005
         1.25    0.00353602   -0.00196642      -9.00106 -2.47192e-005  -0.000545041  4.44498e-005
          1.3    0.00376733   -0.00212693      -9.00113 -2.56771e-005   -0.00056364  5.19882e-005
         1.35    0.00399913   -0.00229141      -9.00121 -2.64625e-005  -0.000580966  5.97771e-005
          1.4    0.00423055   -0.00245947      -9.00128 -2.70602e-005  -0.000596983  6.77748e-005
         1.45    0.00446072   -0.00263069      -9.00136 -2.74565e-005  -0.000611661  7.59394e-005
          1.5    0.00468876   -0.00280464      -9.00143 -2.76394e-005  -0.000624974  8.42286e-005
         1.55    0.00491379   -0.00298091      -9.00151  -2.7599e-005  -0.000636898  9.25998e-005
          1.6    0.00513492   -0.00315908      -9.00159 -2.73273e-005  -0.000647412    0.00010101
         1.65    0.00535127    -0.0033387      -9.00166 -2.68181e-005  -0.000656496   0.000109417
          1.7    0.00556194   -0.00351936      -9.00174  -2.6067e-005  -0.000664131   0.000117776
         1.75    0.00576607   -0.00370063      -9.00181 -2.50718e-005  -0.000670297   0.000126045
          1.8    0.00596276   -0.00388207      -9.00189 -2.38319e-005  -0.000674976   0.000134177
         1.85    0.00615116   -0.00406327      -9.00196 -2.23485e-005  -0.000678149    0.00014213
          1.9    0.00633041   -0.00424379      -9.00203 -2.06247e-005  -0.000679795   0.000149856
         1.95    0.00649967   -0.00442322       -9.0021 -1.86651e-005  -0.000679894    0.00015731
            2    0.00665811   -0.00460112      -9.00216  -1.6476e-005  -0.000678429   0.000164446
         2.05    0.00680493   -0.00477707      -9.00222 -1.40654e-005  -0.000675379   0.000171214
          2.1    0.00693934   -0.00495065      -9.00228 -1.14425e-005  -0.000670725   0.000177568
         2.15    0.00706057   -0.00512144      -9.00234 -8.61823e-006  -0.000664452   0.000183458
          2.2    0.00716789   -0.00528901      -9.00239 -5.60475e-006  -0.000656542   0.000188835
         2.25    0.00726058   -0.00545295      -9.00244 -2.41555e-006  -0.000646983   0.000193649
          2.3    0.00733795   -0.00561284      -9.00248  9.34695e-007  -0.000635762   0.000197851
         2.35    0.00739935   -0.00576826      -9.00252  4.43012e-006  -0.000622871    0.00020139
          2.4    0.00744417   -0.00591881      -9.00256  8.05377e-006  -0.000608303   0.000204218
         2.45     0.0074718   -0.00606406      -9.00259  1.17876e-005  -0.000592058   0.000206285
          2.5     0.0074817   -0.00620362      -9.00261  1.56127e-005  -0.000574138   0.000207543
         2.55    0.00747337   -0.00633708      -9.00263  1.95091e-005  -0.000554549   0.000207944
          2.6    0.00744632   -0.00646405      -9.00264   2.3456e-005    -0.0005333   0.000207443
         2.65    0.00740012   -0.00658413      -9.00265  2.74321e-005  -0.000510406   0.000205996
          2.7    0.00733439   -0.00669694      -9.00265  3.14152e-005  -0.000485884   0.000203561
         2.75    0.00724878    -0.0068021      -9.00265  3.53826e-005  -0.000459756   0.000200097
          2.8    0.00714299   -0.00689923      -9.00264  3.93112e-005  -0.000432049   0.000195568
         2.85    0.00701677   -0.00698799      -9.00262  4.31774e-005  -0.000402792    0.00018994
          2.9    0.00686991     -0.007068      -9.00259  4.69575e-005  -0.000372018   0.000183181
         2.95    0.00670227   -0.00713894      -9.00256  5.06274e-005  -0.000339764   0.000175262
            3    0.00651372   -0.00720047      -9.00252  5.41632e-005  -0.000306071   0.000166161
         3.05    0.00630423   -0.00725226      -9.00247   5.7541e-005  -0.000270982   0.000155855
          3.1    0.00607378     -0.007294      -9.00241  6.07369e-005  -0.000234546   0.000144327
         3.15    0.00582242    -0.0073254      -9.00235  6.37276e-005  -0.000196814   0.000131564
          3.2    0.00555026   -0.00734618      -9.00228  6.64899e-005   -0.00015784   0.000117557
         3.25    0.00525744   -0.00735605       -9.0022  6.90013e-005  -0.000117682     0.0001023
          3.3    0.00494417   -0.00735475      -9.00211  7.12399e-005 -7.64027e-005   8.5793e-005
         3.35    0.00461071   -0.00734205      -9.00202  7.31844e-005 -3.40671e-005  6.80378e-005
          3.4    0.00425737   -0.00731772      -9.00191  7.48146e-005   9.2554e-006   4.9042e-005
         3.45    0.00388452   -0.00728153       -9.0018  7.61109e-005  5.34918e-005   2.8817e-005
          3.5    0.00349257   -0.00723329      -9.00168   7.7055e-005  9.85651e-005  7.37878e-006
         3.55    0.00308199   -0.00717281      -9.00156  7.76294e-005   0.000144395 -1.52527e-005
          3.6    0.00265331   -0.00709992      -9.00142  7.78181e-005   0.000190896 -3.90528e-005
         3.65     0.0022071   -0.00701448      -9.00128  7.76061e-005    0.00023798 -6.39925e-005
          3.7    0.00174397   -0.00691636      -9.00112    7.698e-005   0.000285556 -9.00384e-005
         3.75     0.0012646   -0.00680544      -9.00096  7.59275e-005   0.000333528  -0.000117152
          3.8   0.000769722   -0.00668162       -9.0008  7.44379e-005   0.000381798  -0.000145292
         3.85   0.000260093   -0.00654484      -9.00062  7.25021e-005   0.000430263   -0.00017441
          3.9   -0.00026347   -0.00639504      -9.00044  7.01125e-005    0.00047882  -0.000204454
         3.95  -0.000800106   -0.00623219      -9.00025  6.72631e-005   0.000527362  -0.000235369
            4   -0.00134891   -0.00605628      -9.00005  6.39496e-005   0.000575781  -0.000267092
         4.05   -0.00190894   -0.00586731      -8.99985  6.01695e-005   0.000623966  -0.000299557
          4.1    -0.0024792   -0.00566533      -8.99964  5.59221e-005   0.000671805  -0.000332695
         4.15   -0.00305868    -0.0054504      -8.99942  5.12084e-005   0.000719186  -0.000366431
          4.2    -0.0036463   -0.00522258       -8.9992  4.60314e-005   0.000765996  -0.000400684
         4.25   -0.00424098   -0.00498199      -8.99897  4.03958e-005   0.000812123  -0.000435371
          4.3   -0.00484157   -0.00472876      -8.99873  3.43085e-005   0.000857452  -0.000470404
         4.35   -0.00544693   -0.00446304      -8.99849  2.77781e-005   0.000901871  -0.000505691
          4.4   -0.00605586     -0.004185      -8.99825  2.08153e-005   0.000945269  -0.000541134
         4.45   -0.00666714   -0.00389484        -8.998  1.34328e-005   0.000987534  -0.000576636
          4.5   -0.00727953    -0.0035928      -8.99775  5.64518e-006    0.00102856  -0.000612092
         4.55   -0.00789177   -0.00327912      -8.99749   -2.531e-006    0.00106823  -0.000647395
          4.6   -0.00850259   -0.00295407      -8.99723 -1.10772e-005    0.00110645  -0.000682437
         4.65   -0.00911067   -0.00261794      -8.99696 -1.99729e-005     0.0011431  -0.000717106
          4.7   -0.00971472   -0.00227107       -8.9967 -2.91958e-005    0.00117809  -0.000751286
         4.75    -0.0103134   -0.00191378      -8.99643 -3.87216e-005    0.00121132  -0.000784862
          4.8    -0.0109054   -0.00154645      -8.99616 -4.85243e-005    0.00124269  -0.000817715
         4.85    -0.0114893   -0.00116947      -8.99589 -5.85762e-005     0.0012721  -0.000849725
          4.9    -0.0120639  -0.000783249      -8.99561 -6.88478e-005    0.00129946  -0.000880773
         4.95    -0.0126278  -0.000388217      -8.99534 -7.93081e-005    0.00132469  -0.000910736
            5    -0.0131796  1.51695e-005      -8.99507 -8.99245e-005    0.00134769  -0.000939494
         5.05     -0.013718   0.000426433       -8.9948  -0.000100663    0.00136839  -0.000966924
          5.1    -0.0142417   0.000845077      -8.99453  -0.000111488    0.00138671  -0.000992906
         5.15    -0.0147494    0.00127058      -8.99426  -0.000122364    0.00140257   -0.00101732
          5.2    -0.0152398    0.00170242      -8.99399  -0.000133252    0.00141591   -0.00104004
         5.25    -0.0157116    0.00214002      -8.99373  -0.000144114    0.00142666   -0.00106096
          5.3    -0.0161635    0.00258281      -8.99347   -0.00015491    0.00143477   -0.00107996
         5.35    -0.0165943    0.00303021      -8.99322    -0.0001656    0.00144017   -0.00109693
          5.4    -0.0170028    0.00348159      -8.99296  -0.000176143    0.00144283   -0.00111176
         5.45    -0.0173878    0.00393634      -8.99272  -0.000186498    0.00144269   -0.00112433
          5.5    -0.0177481    0.00439382      -8.99248  -0.000196622    0.00143972   -0.00113455
         5.55    -0.0180826    0.00485336      -8.99224  -0.000206473    0.00143388   -0.00114233
          5.6    -0.0183903     0.0053143      -8.99202   -0.00021601    0.00142516   -0.00114756
         5.65    -0.0186701    0.00577595       -8.9918   -0.00022519    0.00141352   -0.00115016
          5.7     -0.018921    0.00623763      -8.99159  -0.000233971    0.00139896   -0.00115004
         5.75    -0.0191421    0.00669862      -8.99138  -0.000242312    0.00138147   -0.00114713
          5.8    -0.0193323    0.00715821      -8.99119  -0.000250171    0.00136103   -0.00114136
         5.85     -0.019491    0.00761569        -8.991  -0.000257509    0.00133767   -0.00113267
          5.9    -0.0196172    0.00807031      -8.99083  -0.000264285    0.00131137   -0.00112099
         5.95    -0.0197102    0.00852135      -8.99066  -0.000270461    0.00128217   -0.00110629
            6    -0.0197694    0.00896807      -8.99051  -0.000275999    0.00125007   -0.00108851
         6.05     -0.019794    0.00940972      -8.99037  -0.000280863    0.00121511   -0.00106763
          6.1    -0.0197835    0.00984556      -8.99024  -0.000285019    0.00117732   -0.00104362
         6.15    -0.0197374     0.0102748      -8.99012  -0.000288433    0.00113673   -0.00101646
          6.2    -0.0196552     0.0106968      -8.99001  -0.000291074     0.0010934  -0.000986151
         6.25    -0.0195365     0.0111107      -8.98992  -0.000292912    0.00104736  -0.000952692
          6.3     -0.019381     0.0115158      -8.98984   -0.00029392    0.00099868  -0.000916091
         6.35    -0.0191885     0.0119114      -8.98978  -0.000294071   0.000947414  -0.000876368
          6.4    -0.0189588     0.0122966      -8.98973  -0.000293343   0.000893629  -0.000833551
         6.45    -0.0186917     0.0126709      -8.98969  -0.000291715   0.000837398  -0.000787678
          6.5    -0.0183873     0.0130334      -8.98967  -0.000289169   0.000778799  -0.000738795
         6.55    -0.0180455     0.0133835      -8.98967  -0.000285688   0.000717914  -0.000686957
          6.6    -0.0176664     0.0137204      -8.98968   -0.00028126   0.000654831  -0.000632228
         6.65    -0.0172503     0.0140435      -8.98971  -0.000275873   0.000589643  -0.000574681
          6.7    -0.0167973     0.0143521      -8.98975  -0.000269521   0.000522448  -0.000514397
         6.75    -0.0163078     0.0146455      -8.98981  -0.000262198    0.00045335  -0.000451467
          6.8    -0.0157823      0.014923      -8.98989  -0.000253902   0.000382456  -0.000385988
         6.85    -0.0152211     0.0151841      -8.98998  -0.000244635   0.000309878  -0.000318066
          6.9    -0.0146248     0.0154281      -8.99009  -0.000234401   0.000235734  -0.000247816
         6.95    -0.0139941     0.0156544      -8.99022  -0.000223207   0.000160142  -0.000175359
            7    -0.0133296     0.0158625      -8.99036  -0.000211062  8.32297e-005  -0.000100824
         7.05    -0.0126321     0.0160517      -8.99052  -0.000197981  5.12406e-006  -2.4347e-005
          7.1    -0.0119025     0.0162217       -8.9907  -0.000183979 -7.40424e-005  5.39296e-005
         7.15    -0.0111417     0.0163718       -8.9909  -0.000169075  -0.000154134   0.000133857
          7.2    -0.0103506     0.0165017      -8.99111  -0.000153292  -0.000235012    0.00021528
         7.25   -0.00953027     0.0166108      -8.99134  -0.000136656  -0.000316535   0.000298037
          7.3    -0.0086819     0.0166987      -8.99159  -0.000119194  -0.000398559   0.000381964
         7.35   -0.00780666     0.0167651      -8.99186  -0.000100937  -0.000480936    0.00046689
          7.4   -0.00690578     0.0168096      -8.99214 -8.19191e-005  -0.000563518   0.000552638
         7.45   -0.00598059     0.0168319      -8.99243 -6.21774e-005  -0.000646154    0.00063903
          7.5   -0.00503246     0.0168318      -8.99275 -4.17509e-005  -0.000728692   0.000725883
         7.55   -0.00406283     0.0168089      -8.99308 -2.06816e-005  -0.000810976   0.000813009
          7.6    -0.0030732      0.016763      -8.99342  9.86161e-007  -0.000892853   0.000900221
         7.65   -0.00206511      0.016694      -8.99379  2.32055e-005  -0.000974166   0.000987325
          7.7   -0.00104016     0.0166017      -8.99416  4.59275e-005   -0.00105476    0.00107413
         7.75  -4.1933e-016     0.0164861      -8.99455  6.91007e-005   -0.00113448    0.00116044
          7.8    0.00105367      0.016347      -8.99496  9.26719e-005   -0.00121316    0.00124605
         7.85     0.0021191     0.0161845      -8.99538   0.000116586   -0.00129065    0.00133078
          7.9    0.00319451     0.0159986      -8.99581   0.000140786    -0.0013668    0.00141442
         7.95    0.00427808     0.0157894      -8.99626   0.000165213   -0.00144145    0.00149678
            8    0.00536796     0.0155569      -8.99671   0.000189807   -0.00151444    0.00157766
         8.05    0.00646225     0.0153013      -8.99719   0.000214508   -0.00158563    0.00165686
          8.1    0.00755903     0.0150228      -8.99767   0.000239251   -0.00165486     0.0017342
         8.15    0.00865636     0.0147217      -8.99816   0.000263975   -0.00172199    0.00180948
          8.2    0.00975228     0.0143982      -8.99866   0.000288614   -0.00178687    0.00188251
         8.25     0.0108448     0.0140527      -8.99917   0.000313104   -0.00184935    0.00195312
          8.3     0.0119319     0.0136855      -8.99969   0.000337379    -0.0019093    0.00202111
         8.35     0.0130116      0.013297      -9.00022   0.000361374   -0.00196657    0.00208631
          8.4     0.0140818     0.0128878      -9.00076   0.000385023   -0.00202104    0.00214855
         8.45     0.0151406     0.0124582       -9.0013    0.00040826   -0.00207257    0.00220767
          8.5     0.0161859     0.0120089      -9.00185   0.000431021   -0.00212104    0.00226349
         8.55     0.0172157     0.0115405       -9.0024    0.00045324   -0.00216632    0.00231586
          8.6      0.018228     0.0110535      -9.00296   0.000474853   -0.00220829    0.00236465
         8.65     0.0192208     0.0105487      -9.00352   0.000495798   -0.00224685    0.00240969
          8.7      0.020192     0.0100267      -9.00408   0.000516011   -0.00228188    0.00245086
         8.75     0.0211398     0.0094884      -9.00465   0.000535432   -0.00231329    0.00248803
          8.8     0.0220621    0.00893446      -9.00521   0.000554001   -0.00234096    0.00252108
         8.85     0.0229571    0.00836577      -9.00578   0.000571661   -0.00236482     0.0025499
          8.9     0.0238229    0.00778318      -9.00634   0.000588354   -0.00238478    0.00257438
         8.95     0.0246576    0.00718761       -9.0069   0.000604027   -0.00240075    0.00259443
            9     0.0254593    0.00657999      -9.00746   0.000618628   -0.00241266    0.00260996
         9.05     0.0262264    0.00596131      -9.00802   0.000632105   -0.00242045     0.0026209
          9.1     0.0269571    0.00533256      -9.00857   0.000644412   -0.00242406    0.00262717
         9.15     0.0276496    0.00469478      -9.00912   0.000655502   -0.00242343    0.00262871
          9.2     0.0283025    0.00404904      -9.00966   0.000665334   -0.00241852    0.00262547
         9.25      0.028914    0.00339642      -9.01019   0.000673868   -0.00240929    0.00261742
          9.3     0.0294828    0.00273805      -9.01071   0.000681065   -0.00239571    0.00260451
         9.35     0.0300072    0.00207506      -9.01122   0.000686892   -0.00237775    0.00258672
          9.4      0.030486    0.00140861      -9.01173   0.000691317   -0.00235541    0.00256403
         9.45     0.0309179   0.000739892      -9.01222   0.000694311   -0.00232868    0.00253644
          9.5     0.0313015  7.00943e-005       -9.0127   0.000695851   -0.00229755    0.00250394
         9.55     0.0316357  -0.000599571      -9.01317   0.000695913   -0.00226203    0.00246655
          9.6     0.0319195   -0.00126788      -9.01362   0.000694478   -0.00222215    0.00242428
         9.65     0.0321518    -0.0019336      -9.01406   0.000691532   -0.00217793    0.00237715
          9.7     0.0323317   -0.00259548      -9.01448   0.000687061   -0.00212941    0.00232519
         9.75     0.0324583   -0.00325229      -9.01489   0.000681056   -0.00207662    0.00226845
          9.8     0.0325309   -0.00390277      -9.01528   0.000673512   -0.00201962    0.00220697
         9.85     0.0325488   -0.00454569      -9.01565   0.000664426   -0.00195848    0.00214081
          9.9     0.0325115   -0.00517978        -9.016   0.000653798   -0.00189325    0.00207002
         9.95     0.0324184   -0.00580383      -9.01633   0.000641632   -0.00182402    0.00199467
           10     0.0322692   -0.00641659      -9.01664   0.000627936   -0.00175087    0.00191485
        10.05     0.0320637   -0.00701684      -9.01693   0.000612719    -0.0016739    0.00183062
