hotint output data
notes: time (s), wave elevation (m), surge (m), heave (m), pitch (rads), flap 1 pitch (rads), flap 2 pitch (rads)
amplitude: -0.1m, period: 8.5s
            0            -0   -7.289e-007            -9  1.32879e-008 -8.84318e-007  6.50852e-008
         0.05  6.15858e-006 -3.80384e-006            -9   5.8452e-008 -4.34363e-006  3.38002e-007
          0.1  2.46175e-005 -1.04156e-005      -9.00001  1.26003e-007  -1.1032e-005  9.16612e-007
         0.15  5.53263e-005 -2.11387e-005      -9.00001   1.8866e-007 -2.06499e-005  1.83252e-006
          0.2  9.82011e-005 -3.64901e-005      -9.00002    2.236e-007 -3.29058e-005  3.10157e-006
         0.25   0.000153125 -5.69331e-005      -9.00004   2.1219e-007 -4.75138e-005  4.72703e-006
          0.3   0.000219946 -8.28798e-005      -9.00005   1.3972e-007 -6.41962e-005  6.70193e-006
         0.35   0.000298483  -0.000114694      -9.00007 -4.84612e-009 -8.26832e-005  9.01137e-006
          0.4    0.00038852  -0.000152694      -9.00009 -2.29077e-007  -0.000102711  1.16348e-005
         0.45   0.000489808  -0.000197155      -9.00011 -5.37278e-007  -0.000124024  1.45473e-005
          0.5   0.000602069  -0.000248306      -9.00014 -9.30739e-007  -0.000146377  1.77211e-005
         0.55   0.000724994  -0.000306337      -9.00017 -1.40797e-006  -0.000169536  2.11266e-005
          0.6   0.000858241  -0.000371398       -9.0002 -1.96498e-006  -0.000193281  2.47331e-005
         0.65    0.00100144  -0.000443597      -9.00023 -2.59548e-006  -0.000217403  2.85102e-005
          0.7     0.0011542  -0.000523009      -9.00027 -3.29119e-006   -0.00024171  3.24276e-005
         0.75    0.00131608  -0.000609669      -9.00031  -4.0421e-006  -0.000266025  3.64565e-005
          0.8    0.00148664  -0.000703582      -9.00035 -4.83677e-006  -0.000290188  4.05692e-005
         0.85    0.00166539   -0.00080472       -9.0004 -5.66256e-006  -0.000314053  4.47398e-005
          0.9    0.00185183  -0.000913024      -9.00044 -6.50592e-006  -0.000337491  4.89444e-005
         0.95    0.00204544   -0.00102841      -9.00049 -7.35265e-006  -0.000360388  5.31608e-005
            1    0.00224565   -0.00115077      -9.00055 -8.18811e-006  -0.000382642  5.73687e-005
         1.05     0.0024519   -0.00127996       -9.0006  -8.9975e-006  -0.000404169  6.15494e-005
          1.1    0.00266359   -0.00141583      -9.00066 -9.76605e-006  -0.000424894  6.56857e-005
         1.15    0.00288011    -0.0015582      -9.00072 -1.04793e-005  -0.000444756  6.97616e-005
          1.2    0.00310082   -0.00170687      -9.00078  -1.1123e-005  -0.000463703  7.37621e-005
         1.25    0.00332507   -0.00186164      -9.00084 -1.16839e-005  -0.000481693  7.76728e-005
          1.3    0.00355221   -0.00202229      -9.00091 -1.21492e-005  -0.000498691  8.14795e-005
         1.35    0.00378155   -0.00218856      -9.00097  -1.2507e-005  -0.000514669  8.51681e-005
          1.4     0.0040124   -0.00236022      -9.00104 -1.27466e-005  -0.000529604  8.87239e-005
         1.45    0.00424406     -0.002537      -9.00111 -1.28583e-005  -0.000543478  9.21318e-005
          1.5    0.00447582   -0.00271864      -9.00118 -1.28334e-005  -0.000556273  9.53755e-005
         1.55    0.00470695   -0.00290485      -9.00126 -1.26648e-005  -0.000567976  9.84375e-005
          1.6    0.00493673   -0.00309535      -9.00133 -1.23464e-005  -0.000578573   0.000101299
         1.65    0.00516444   -0.00328986       -9.0014 -1.18734e-005   -0.00058805   0.000103939
          1.7    0.00538932   -0.00348808      -9.00148 -1.12425e-005  -0.000596393   0.000106335
         1.75    0.00561065    -0.0036897      -9.00156 -1.04515e-005  -0.000603587   0.000108463
          1.8    0.00582769   -0.00389441      -9.00163 -9.49973e-006  -0.000609615   0.000110296
         1.85    0.00603969   -0.00410191      -9.00171 -8.38759e-006   -0.00061446   0.000111806
          1.9    0.00624594   -0.00431189      -9.00178 -7.11689e-006  -0.000618102   0.000112962
         1.95    0.00644569     -0.004524      -9.00186 -5.69067e-006  -0.000620521   0.000113732
            2    0.00663823   -0.00473795      -9.00193 -4.11315e-006  -0.000621694   0.000114081
         2.05    0.00682283   -0.00495338      -9.00201 -2.38975e-006    -0.0006216   0.000113975
          2.1     0.0069988   -0.00516997      -9.00208 -5.26999e-007  -0.000620214   0.000113374
         2.15    0.00716544   -0.00538738      -9.00215  1.46745e-006  -0.000617513   0.000112241
          2.2    0.00732207   -0.00560526      -9.00222   3.5849e-006  -0.000613474   0.000110536
         2.25    0.00746801   -0.00582328      -9.00229  5.81565e-006  -0.000608075   0.000108219
          2.3    0.00760261   -0.00604107      -9.00235  8.14901e-006  -0.000601295   0.000105247
         2.35    0.00772524   -0.00625828      -9.00242  1.05734e-005  -0.000593112   0.000101581
          2.4    0.00783528   -0.00647455      -9.00248  1.30764e-005  -0.000583509  9.71789e-005
         2.45    0.00793213   -0.00668952      -9.00254  1.56446e-005  -0.000572471  9.19994e-005
          2.5    0.00801521   -0.00690282      -9.00259  1.82639e-005  -0.000559986  8.60024e-005
         2.55    0.00808398    -0.0071141      -9.00265  2.09196e-005  -0.000546043  7.91485e-005
          2.6     0.0081379   -0.00732297       -9.0027  2.35959e-005  -0.000530636  7.13993e-005
         2.65    0.00817647   -0.00752906      -9.00274  2.62768e-005   -0.00051376  6.27181e-005
          2.7     0.0081992   -0.00773202      -9.00279  2.89455e-005  -0.000495415  5.30696e-005
         2.75    0.00820566   -0.00793145      -9.00282  3.15849e-005  -0.000475603  4.24207e-005
          2.8    0.00819542   -0.00812699      -9.00286  3.41771e-005  -0.000454329  3.07401e-005
         2.85     0.0081681   -0.00831827      -9.00289  3.67042e-005  -0.000431601   1.7999e-005
          2.9    0.00812333   -0.00850491      -9.00291  3.91479e-005  -0.000407431  4.17118e-006
         2.95    0.00806078   -0.00868655      -9.00293  4.14896e-005  -0.000381831 -1.07672e-005
            3    0.00798017   -0.00886282      -9.00294  4.37109e-005  -0.000354819 -2.68369e-005
         3.05    0.00788124   -0.00903335      -9.00295   4.5793e-005  -0.000326414  -4.4056e-005
          3.1    0.00776376   -0.00919777      -9.00295  4.77173e-005  -0.000296639 -6.24392e-005
         3.15    0.00762755   -0.00935574      -9.00295  4.94654e-005   -0.00026552 -8.19985e-005
          3.2    0.00747246   -0.00950689      -9.00294  5.10191e-005  -0.000233083  -0.000102742
         3.25    0.00729837   -0.00965087      -9.00293  5.23605e-005  -0.000199361  -0.000124675
          3.3    0.00710521   -0.00978733      -9.00291  5.34722e-005  -0.000164388  -0.000147799
         3.35    0.00689294   -0.00991594      -9.00288  5.43371e-005    -0.0001282  -0.000172113
          3.4    0.00666157    -0.0100364      -9.00284  5.49389e-005 -9.08381e-005   -0.00019761
         3.45    0.00641113    -0.0101482       -9.0028  5.52619e-005 -5.23461e-005  -0.000224282
          3.5    0.00614171    -0.0102513      -9.00275  5.52909e-005 -1.27711e-005  -0.000252115
         3.55    0.00585343    -0.0103451       -9.0027  5.50118e-005  2.78366e-005  -0.000281094
          3.6    0.00554645    -0.0104295      -9.00263  5.44112e-005  6.94227e-005  -0.000311197
         3.65    0.00522097    -0.0105041      -9.00256  5.34767e-005    0.00011193  -0.000342399
          3.7    0.00487723    -0.0105687      -9.00249  5.21968e-005   0.000155298  -0.000374674
         3.75    0.00451552    -0.0106229       -9.0024  5.05612e-005   0.000199461  -0.000407988
          3.8    0.00413616    -0.0106664      -9.00231  4.85606e-005   0.000244354  -0.000442304
         3.85     0.0037395    -0.0106991      -9.00221  4.61869e-005   0.000289904  -0.000477583
          3.9    0.00332596    -0.0107206       -9.0021  4.34331e-005   0.000336039   -0.00051378
         3.95    0.00289596    -0.0107308      -9.00198  4.02937e-005   0.000382683  -0.000550846
            4    0.00244999    -0.0107293      -9.00186  3.67644e-005   0.000429757  -0.000588729
         4.05    0.00198857    -0.0107161      -9.00173  3.28421e-005   0.000477181  -0.000627371
          4.1    0.00151225    -0.0106908      -9.00159  2.85253e-005   0.000524871  -0.000666712
         4.15    0.00102163    -0.0106533      -9.00144  2.38139e-005   0.000572745  -0.000706688
          4.2   0.000517321    -0.0106035      -9.00129  1.87091e-005   0.000620716   -0.00074723
         4.25  7.72301e-017    -0.0105411      -9.00113  1.32139e-005   0.000668697  -0.000788265
          4.3  -0.000529638    -0.0104661      -9.00096  7.33262e-006   0.000716601  -0.000829717
         4.35   -0.00107086    -0.0103783      -9.00078  1.07122e-006   0.000764341  -0.000871506
          4.4   -0.00162291    -0.0102776       -9.0006 -5.56277e-006   0.000811826  -0.000913549
         4.45   -0.00218498     -0.010164      -9.00041 -1.25602e-005   0.000858968   -0.00095576
          4.5   -0.00275624    -0.0100374      -9.00021 -1.99103e-005   0.000905678  -0.000998047
         4.55   -0.00333585   -0.00989763            -9 -2.76008e-005   0.000951866   -0.00104032
          4.6   -0.00392292   -0.00974482      -8.99979 -3.56176e-005   0.000997443   -0.00108248
         4.65   -0.00451654   -0.00957889      -8.99957 -4.39452e-005    0.00104232   -0.00112443
          4.7   -0.00511577   -0.00939987      -8.99935 -5.25664e-005    0.00108641   -0.00116606
         4.75   -0.00571966   -0.00920778      -8.99912 -6.14625e-005    0.00112962   -0.00120728
          4.8   -0.00632722   -0.00900268      -8.99888 -7.06132e-005    0.00117187   -0.00124798
         4.85   -0.00693745   -0.00878462      -8.99864 -7.99968e-005    0.00121306   -0.00128805
          4.9   -0.00754933    -0.0085537      -8.99839 -8.95901e-005    0.00125312   -0.00132738
         4.95   -0.00816182   -0.00831004      -8.99814 -9.93684e-005    0.00129196   -0.00136586
            5   -0.00877387   -0.00805376      -8.99788  -0.000109306    0.00132949   -0.00140338
         5.05   -0.00938441   -0.00778501      -8.99762  -0.000119375    0.00136563   -0.00143982
          5.1   -0.00999235   -0.00750398      -8.99736  -0.000129548     0.0014003   -0.00147508
         5.15    -0.0105966   -0.00721084      -8.99709  -0.000139794    0.00143342   -0.00150904
          5.2    -0.0111961   -0.00690583      -8.99681  -0.000150084    0.00146492   -0.00154158
         5.25    -0.0117897   -0.00658918      -8.99654  -0.000160385    0.00149471    -0.0015726
          5.3    -0.0123763   -0.00626114      -8.99626  -0.000170666    0.00152274   -0.00160197
         5.35    -0.0129547     -0.005922      -8.99598  -0.000180892    0.00154892    -0.0016296
          5.4     -0.013524   -0.00557206      -8.99569   -0.00019103    0.00157319   -0.00165537
         5.45    -0.0140829   -0.00521163      -8.99541  -0.000201044    0.00159549   -0.00167917
          5.5    -0.0146303   -0.00484107      -8.99512  -0.000210901    0.00161575   -0.00170091
         5.55    -0.0151652   -0.00446074      -8.99483  -0.000220563    0.00163391   -0.00172047
          5.6    -0.0156864   -0.00407101      -8.99455  -0.000229996    0.00164993   -0.00173775
         5.65    -0.0161929   -0.00367231      -8.99426  -0.000239164    0.00166375   -0.00175267
          5.7    -0.0166835   -0.00326504      -8.99397  -0.000248029    0.00167532   -0.00176512
         5.75    -0.0171573   -0.00284966      -8.99369  -0.000256557    0.00168459   -0.00177502
          5.8    -0.0176131   -0.00242662       -8.9934   -0.00026471    0.00169153   -0.00178229
         5.85    -0.0180499   -0.00199641      -8.99312  -0.000272454    0.00169609   -0.00178685
          5.9    -0.0184668   -0.00155953      -8.99284  -0.000279753    0.00169825   -0.00178862
         5.95    -0.0188626   -0.00111649      -8.99257  -0.000286573    0.00169797   -0.00178753
            6    -0.0192365  -0.000667839       -8.9923   -0.00029288    0.00169522   -0.00178351
         6.05    -0.0195875  -0.000214117      -8.99203   -0.00029864    0.00168998   -0.00177653
          6.1    -0.0199147   0.000244106      -8.99176   -0.00030382    0.00168223   -0.00176651
         6.15    -0.0202171   0.000706245       -8.9915  -0.000308391    0.00167196   -0.00175341
          6.2     -0.020494     0.0011717      -8.99125  -0.000312321    0.00165914    -0.0017372
         6.25    -0.0207445    0.00163987        -8.991  -0.000315581    0.00164378   -0.00171785
          6.3    -0.0209677    0.00211011      -8.99076  -0.000318145    0.00162586   -0.00169533
         6.35    -0.0211631     0.0025818      -8.99053  -0.000319985    0.00160539   -0.00166962
          6.4    -0.0213297    0.00305427       -8.9903  -0.000321078    0.00158237    -0.0016407
         6.45     -0.021467    0.00352687      -8.99008  -0.000321401    0.00155681   -0.00160859
          6.5    -0.0215742    0.00399892      -8.98987  -0.000320933    0.00152871   -0.00157327
         6.55    -0.0216509    0.00446974      -8.98967  -0.000319654    0.00149809   -0.00153477
          6.6    -0.0216964    0.00493865      -8.98948  -0.000317548    0.00146498   -0.00149309
         6.65    -0.0217102    0.00540493       -8.9893  -0.000314599    0.00142939   -0.00144826
          6.7    -0.0216919    0.00586789      -8.98913  -0.000310794    0.00139135   -0.00140032
         6.75    -0.0216411     0.0063268      -8.98897  -0.000306122     0.0013509    -0.0013493
          6.8    -0.0215573    0.00678097      -8.98882  -0.000300575    0.00130806   -0.00129526
         6.85    -0.0214402    0.00722966      -8.98868  -0.000294146    0.00126288   -0.00123824
          6.9    -0.0212897    0.00767215      -8.98856  -0.000286832     0.0012154    -0.0011783
         6.95    -0.0211054    0.00810773      -8.98844  -0.000278629    0.00116567   -0.00111552
            7    -0.0208871    0.00853566      -8.98834   -0.00026954    0.00111373   -0.00104996
         7.05    -0.0206349    0.00895523      -8.98826  -0.000259567    0.00105965  -0.000981704
          7.1    -0.0203486    0.00936571      -8.98819  -0.000248715    0.00100348  -0.000910844
         7.15    -0.0200282    0.00976639      -8.98813  -0.000236992   0.000945281  -0.000837469
          7.2    -0.0196738     0.0101566      -8.98809   -0.00022441   0.000885119  -0.000761679
         7.25    -0.0192854     0.0105355      -8.98806   -0.00021098   0.000823063  -0.000683577
          7.3    -0.0188633     0.0109025      -8.98804  -0.000196718   0.000759185  -0.000603275
         7.35    -0.0184076      0.011257      -8.98805  -0.000181642   0.000693562  -0.000520888
          7.4    -0.0179187     0.0115981      -8.98807  -0.000165771   0.000626272  -0.000436535
         7.45    -0.0173968     0.0119253       -8.9881  -0.000149129   0.000557396  -0.000350344
          7.5    -0.0168424     0.0122378      -8.98815  -0.000131739   0.000487019  -0.000262444
         7.55    -0.0162559     0.0125352      -8.98822  -0.000113629   0.000415231  -0.000172971
          7.6    -0.0156377     0.0128166       -8.9883 -9.48284e-005    0.00034212 -8.20618e-005
         7.65    -0.0149885     0.0130816       -8.9884 -7.53682e-005   0.000267782  1.01391e-005
          7.7    -0.0143089     0.0133295      -8.98852  -5.5282e-005   0.000192311   0.000103485
         7.75    -0.0135995     0.0135597      -8.98866 -3.46055e-005   0.000115807   0.000197827
          7.8    -0.0128611     0.0137717      -8.98881 -1.33762e-005  3.83692e-005   0.000293011
         7.85    -0.0120943      0.013965      -8.98898  8.36635e-006 -3.98981e-005   0.000388881
          7.9    -0.0113002      0.014139      -8.98917   3.0581e-005   -0.00011889    0.00048528
         7.95    -0.0104795     0.0142933      -8.98937  5.32248e-005    -0.0001985   0.000582045
            8   -0.00963311     0.0144275       -8.9896  7.62532e-005  -0.000278618   0.000679014
         8.05   -0.00876212      0.014541      -8.98984    9.962e-005  -0.000359135   0.000776024
          8.1   -0.00786752     0.0146335      -8.99009   0.000123278  -0.000439939   0.000872908
         8.15    -0.0069504     0.0147045      -8.99037   0.000147178  -0.000520915   0.000969499
          8.2   -0.00601187     0.0147538      -8.99066    0.00017127   -0.00060195    0.00106563
         8.25   -0.00505311     0.0147811      -8.99097   0.000195504  -0.000682927    0.00116114
          8.3   -0.00407535      0.014786       -8.9913   0.000219827  -0.000763729    0.00125585
         8.35   -0.00307983     0.0147683      -8.99164   0.000244187  -0.000844238     0.0013496
          8.4   -0.00206787     0.0147277        -8.992    0.00026853  -0.000924336    0.00144222
         8.45    -0.0010408     0.0146641      -8.99238   0.000292802    -0.0010039    0.00153355
          8.5  -3.0892e-016     0.0145773      -8.99277    0.00031695   -0.00108282    0.00162343
         8.55    0.00105312     0.0144673      -8.99318   0.000340918   -0.00116096    0.00171169
          8.6    0.00211711     0.0143338       -8.9936   0.000364653   -0.00123822    0.00179817
         8.65    0.00319049      0.014177      -8.99404   0.000388098   -0.00131446    0.00188271
          8.7    0.00427175     0.0139967       -8.9945   0.000411201   -0.00138957    0.00196517
         8.75    0.00535936     0.0137929      -8.99497   0.000433906   -0.00146343    0.00204539
          8.8    0.00645176     0.0135659      -8.99545   0.000456161   -0.00153591    0.00212322
         8.85    0.00754736     0.0133156      -8.99595   0.000477911    -0.0016069    0.00219852
          8.9    0.00864456     0.0130422      -8.99645   0.000499106   -0.00167628    0.00227114
         8.95    0.00974174     0.0127458      -8.99698   0.000519692   -0.00174394    0.00234095
            9     0.0108372     0.0124268      -8.99751    0.00053962   -0.00180974    0.00240781
         9.05     0.0119294     0.0120853      -8.99806   0.000558841    -0.0018736     0.0024716
          9.1     0.0130167     0.0117216      -8.99861   0.000577305   -0.00193537     0.0025322
         9.15     0.0140972     0.0113362      -8.99918   0.000594966   -0.00199497    0.00258947
          9.2     0.0151694     0.0109293      -8.99976   0.000611779   -0.00205227    0.00264331
         9.25     0.0162317     0.0105013      -9.00034   0.000627699   -0.00210717     0.0026936
          9.3     0.0172822     0.0100528      -9.00094   0.000642685   -0.00215957    0.00274023
         9.35     0.0183193    0.00958414      -9.00154   0.000656695   -0.00220935    0.00278311
          9.4     0.0193414    0.00909591      -9.00215    0.00066969   -0.00225643    0.00282214
         9.45     0.0203467    0.00858865      -9.00276   0.000681635    -0.0023007    0.00285722
          9.5     0.0213337    0.00806295      -9.00338   0.000692493   -0.00234208    0.00288826
         9.55     0.0223006    0.00751944      -9.00401   0.000702231   -0.00238046    0.00291518
          9.6     0.0232459    0.00695878      -9.00464    0.00071082   -0.00241577     0.0029379
         9.65     0.0241678    0.00638166      -9.00527   0.000718228   -0.00244791    0.00295634
          9.7     0.0250649    0.00578882      -9.00591   0.000724431   -0.00247682    0.00297044
         9.75     0.0259356    0.00518099      -9.00654   0.000729402   -0.00250241    0.00298013
          9.8     0.0267782    0.00455896      -9.00718    0.00073312   -0.00252462    0.00298534
         9.85     0.0275913    0.00392355      -9.00781   0.000735564   -0.00254338    0.00298601
          9.9     0.0283734     0.0032756      -9.00845   0.000736716   -0.00255862    0.00298211
         9.95      0.029123    0.00261596      -9.00908    0.00073656   -0.00257029    0.00297357
           10     0.0298388    0.00194553      -9.00971   0.000735083   -0.00257834    0.00296035
        10.05     0.0305193    0.00126521      -9.01034   0.000732272   -0.00258272    0.00294242
