hotint output data
notes: time (s), wave elevation (m), surge (m), heave (m), pitch (rads), flap 1 pitch (rads), flap 2 pitch (rads)
amplitude: -1m, period: 7s
            0            -0 -5.97377e-006            -9 -8.11386e-007 -1.35023e-005 -6.55302e-007
         0.05  7.47747e-005  -3.1941e-005      -9.00002 -4.17277e-006 -6.61039e-005 -3.05094e-006
          0.1   0.000298798 -8.98107e-005      -9.00006 -1.12198e-005  -0.000167153 -7.24199e-006
         0.15   0.000671166  -0.000186781      -9.00012 -2.23238e-005  -0.000311261 -1.26129e-005
          0.2    0.00119038  -0.000329043       -9.0002  -3.7768e-005   -0.00049322 -1.87852e-005
         0.25    0.00185434  -0.000521866      -9.00029 -5.77517e-005  -0.000707966 -2.55658e-005
          0.3    0.00266037  -0.000769641      -9.00041 -8.23953e-005  -0.000950613 -3.29117e-005
         0.35     0.0036052   -0.00107594      -9.00054  -0.000111745   -0.00121645 -4.08952e-005
          0.4      0.004685   -0.00144356      -9.00069  -0.000145776   -0.00150093 -4.96671e-005
         0.45    0.00589538   -0.00187458      -9.00086  -0.000184398   -0.00179967 -5.94349e-005
          0.5     0.0072314   -0.00237037      -9.00105  -0.000227458   -0.00210848 -7.04473e-005
         0.55    0.00868759   -0.00293162      -9.00125  -0.000274745   -0.00242343 -8.29772e-005
          0.6      0.010258    -0.0035584      -9.00147  -0.000325996   -0.00274082 -9.73076e-005
         0.65     0.0119361   -0.00425018      -9.00171    -0.0003809   -0.00305719  -0.000113719
          0.7      0.013715   -0.00500587      -9.00195  -0.000439103   -0.00336936  -0.000132482
         0.75     0.0155872   -0.00582384      -9.00222  -0.000500211   -0.00367442   -0.00015385
          0.8      0.017545   -0.00670201      -9.00249  -0.000563798   -0.00396973  -0.000178054
         0.85     0.0195801   -0.00763784      -9.00278  -0.000629411   -0.00425296  -0.000205298
          0.9     0.0216838   -0.00862842      -9.00308   -0.00069657   -0.00452199  -0.000235756
         0.95     0.0238473   -0.00967047      -9.00338   -0.00076478     -0.004775  -0.000269569
            1      0.026061    -0.0107604       -9.0037  -0.000833528   -0.00501039   -0.00030685
         1.05     0.0283156    -0.0118944      -9.00402  -0.000902292   -0.00522679  -0.000347679
          1.1      0.030601    -0.0130684      -9.00434  -0.000970544   -0.00542305  -0.000392111
         1.15     0.0329072    -0.0142781      -9.00467   -0.00103775    -0.0055982  -0.000440174
          1.2     0.0352238     -0.015519        -9.005   -0.00110339   -0.00575146  -0.000491873
         1.25     0.0375404    -0.0167868      -9.00533   -0.00116693   -0.00588218  -0.000547194
          1.3     0.0398462    -0.0180768      -9.00566   -0.00122785   -0.00598986  -0.000606108
         1.35     0.0421306    -0.0193842      -9.00599   -0.00128565   -0.00607409  -0.000668572
          1.4     0.0443826    -0.0207046       -9.0063   -0.00133983   -0.00613457  -0.000734538
         1.45     0.0465915    -0.0220331      -9.00662   -0.00138991   -0.00617105   -0.00080395
          1.5     0.0487464    -0.0233652      -9.00692   -0.00143543   -0.00618336  -0.000876754
         1.55     0.0508364    -0.0246962      -9.00721   -0.00147593   -0.00617135  -0.000952895
          1.6     0.0528507    -0.0260217      -9.00749   -0.00151101   -0.00613491   -0.00103233
         1.65     0.0547786     -0.027337      -9.00776   -0.00154024   -0.00607395     -0.001115
          1.7     0.0566096    -0.0286378      -9.00801   -0.00156324   -0.00598837    -0.0012009
         1.75     0.0583333    -0.0299198      -9.00824   -0.00157967   -0.00587811   -0.00128999
          1.8     0.0599396    -0.0311788      -9.00845   -0.00158918   -0.00574309   -0.00138227
         1.85     0.0614184    -0.0324107      -9.00864   -0.00159145   -0.00558325   -0.00147775
          1.9     0.0627602    -0.0336113       -9.0088   -0.00158622    -0.0053985   -0.00157643
         1.95     0.0639554    -0.0347768      -9.00894   -0.00157321   -0.00518881   -0.00167835
            2     0.0649952    -0.0359033      -9.00905   -0.00155219   -0.00495411   -0.00178356
         2.05     0.0658708    -0.0369871      -9.00913   -0.00152297    -0.0046944   -0.00189209
          2.1      0.066574    -0.0380247      -9.00918   -0.00148535   -0.00440965   -0.00200402
         2.15     0.0670968    -0.0390123       -9.0092   -0.00143921   -0.00409991    -0.0021194
          2.2      0.067432    -0.0399466      -9.00918    -0.0013844   -0.00376524   -0.00223831
         2.25     0.0675727    -0.0408244      -9.00913   -0.00132085   -0.00340576   -0.00236082
          2.3     0.0675123    -0.0416423      -9.00904    -0.0012485   -0.00302161     -0.002487
         2.35     0.0672452    -0.0423972      -9.00891   -0.00116731   -0.00261301   -0.00261691
          2.4     0.0667659    -0.0430861      -9.00874   -0.00107728   -0.00218024   -0.00275061
         2.45     0.0660697    -0.0437062      -9.00853  -0.000978443   -0.00172365   -0.00288816
          2.5     0.0651526    -0.0442546      -9.00828  -0.000870864   -0.00124367   -0.00302959
         2.55     0.0640111    -0.0447287      -9.00798  -0.000754633  -0.000740797   -0.00317492
          2.6     0.0626422    -0.0451259      -9.00763  -0.000629876  -0.000215597   -0.00332418
         2.65     0.0610439    -0.0454438      -9.00724  -0.000496748   0.000331285   -0.00347734
          2.7     0.0592145    -0.0456801      -9.00681  -0.000355437   0.000899129   -0.00363437
         2.75     0.0571532    -0.0458326      -9.00633   -0.00020616    0.00148715   -0.00379522
          2.8       0.05486    -0.0458994      -9.00579 -4.91677e-005    0.00209447   -0.00395981
         2.85     0.0523352    -0.0458786      -9.00521   0.000115262    0.00272017   -0.00412804
          2.9     0.0495803    -0.0457684      -9.00459    0.00028682    0.00336323   -0.00429978
         2.95     0.0465971    -0.0455672      -9.00391   0.000465168     0.0040226   -0.00447487
            3     0.0433884    -0.0452736      -9.00318    0.00064994    0.00469713   -0.00465314
         3.05     0.0399575    -0.0448863      -9.00241   0.000840741    0.00538563   -0.00483438
          3.1     0.0363087     -0.044404      -9.00159    0.00103715    0.00608684   -0.00501836
         3.15     0.0324468    -0.0438259      -9.00072    0.00123872    0.00679945   -0.00520481
          3.2     0.0283773    -0.0431511       -8.9998    0.00144498    0.00752207   -0.00539346
         3.25     0.0241064    -0.0423788      -8.99883    0.00165543    0.00825326     -0.005584
          3.3     0.0196413    -0.0415084      -8.99782    0.00186955    0.00899156   -0.00577609
         3.35     0.0149894    -0.0405396      -8.99676    0.00208681    0.00973539   -0.00596938
          3.4     0.0101591     -0.039472      -8.99566    0.00230664     0.0104832   -0.00616351
         3.45    0.00515946    -0.0383056      -8.99452    0.00252847     0.0112333   -0.00635806
          3.5  4.80581e-016    -0.0370404      -8.99334    0.00275169     0.0119839   -0.00655263
         3.55     -0.005309    -0.0356764      -8.99211    0.00297569     0.0127334   -0.00674677
          3.6    -0.0107567    -0.0342141      -8.99085    0.00319984       0.01348   -0.00694005
         3.65    -0.0163317    -0.0326539      -8.98955    0.00342351     0.0142218   -0.00713197
          3.7     -0.022022    -0.0309964      -8.98822    0.00364602     0.0149569   -0.00732207
         3.75    -0.0278151    -0.0292423      -8.98685    0.00386672     0.0156833   -0.00750984
          3.8     -0.033698    -0.0273925      -8.98546    0.00408494     0.0163993   -0.00769475
         3.85    -0.0396572    -0.0254482      -8.98404    0.00429997     0.0171027   -0.00787629
          3.9    -0.0456787    -0.0234105      -8.98259    0.00451115     0.0177916   -0.00805391
         3.95    -0.0517483    -0.0212809      -8.98112    0.00471777      0.018464   -0.00822705
            4    -0.0578512    -0.0190608      -8.97963    0.00491913     0.0191178   -0.00839516
         4.05    -0.0639723    -0.0167519      -8.97813    0.00511454     0.0197511   -0.00855765
          4.1    -0.0700962    -0.0143561      -8.97661    0.00530331     0.0203618   -0.00871395
         4.15    -0.0762074    -0.0118753      -8.97509    0.00548473     0.0209479   -0.00886347
          4.2    -0.0822899   -0.00931186      -8.97355    0.00565813     0.0215075   -0.00900561
         4.25    -0.0883277   -0.00666792      -8.97202    0.00582281     0.0220386   -0.00913978
          4.3    -0.0943046   -0.00394601      -8.97048    0.00597812     0.0225393   -0.00926537
         4.35     -0.100204   -0.00114874      -8.96895    0.00612339     0.0230077   -0.00938179
          4.4      -0.10601    0.00172112      -8.96742    0.00625797      0.023442   -0.00948843
         4.45     -0.111706    0.00466066      -8.96591    0.00638123     0.0238403   -0.00958469
          4.5     -0.117275    0.00766682      -8.96441    0.00649257      0.024201   -0.00966999
         4.55     -0.122701     0.0107364      -8.96292    0.00659138     0.0245223   -0.00974373
          4.6     -0.127968     0.0138661      -8.96146    0.00667709     0.0248028   -0.00980535
         4.65      -0.13306     0.0170524      -8.96003    0.00674916     0.0250408   -0.00985426
          4.7      -0.13796     0.0202918      -8.95863    0.00680706     0.0252348   -0.00988993
         4.75     -0.142653     0.0235805      -8.95726     0.0068503     0.0253835   -0.00991182
          4.8     -0.147124     0.0269147      -8.95593     0.0068784     0.0254856   -0.00991939
         4.85     -0.151358     0.0302905      -8.95464    0.00689093     0.0255398   -0.00991217
          4.9     -0.155339     0.0337038       -8.9534    0.00688749     0.0255451   -0.00988965
         4.95     -0.159054     0.0371504       -8.9522    0.00686771     0.0255003   -0.00985141
            5     -0.162488      0.040626      -8.95106    0.00683126     0.0254045     -0.009797
         5.05     -0.165628     0.0441264      -8.94998    0.00677783     0.0252568   -0.00972603
          5.1     -0.168461     0.0476469      -8.94896    0.00670716     0.0250566   -0.00963813
         5.15     -0.170976     0.0511831        -8.948    0.00661904     0.0248032   -0.00953298
          5.2     -0.173159     0.0547303      -8.94712    0.00651329     0.0244961   -0.00941027
         5.25        -0.175     0.0582837       -8.9463    0.00638977     0.0241348   -0.00926976
          5.3     -0.176489     0.0618386      -8.94556    0.00624839     0.0237191   -0.00911122
         5.35     -0.177615       0.06539       -8.9449     0.0060891     0.0232489   -0.00893448
          5.4     -0.178371      0.068933      -8.94432    0.00591189     0.0227241   -0.00873942
         5.45     -0.178747     0.0724625      -8.94383    0.00571681     0.0221448   -0.00852596
          5.5     -0.178737     0.0759735      -8.94342    0.00550394     0.0215113   -0.00829408
         5.55     -0.178333     0.0794608       -8.9431    0.00527341     0.0208238   -0.00804379
          5.6     -0.177531     0.0829193      -8.94288    0.00502541      0.020083    -0.0077752
         5.65     -0.176324     0.0863437      -8.94276    0.00476016     0.0192895   -0.00748842
          5.7      -0.17471     0.0897288      -8.94273    0.00447794     0.0184439   -0.00718367
         5.75     -0.172686     0.0930692      -8.94281    0.00417907     0.0175473   -0.00686121
          5.8     -0.170248     0.0963598      -8.94298    0.00386392     0.0166007   -0.00652135
         5.85     -0.167398     0.0995951      -8.94327    0.00353292     0.0156052   -0.00616449
          5.9     -0.164133       0.10277      -8.94366    0.00318651     0.0145622   -0.00579107
         5.95     -0.160455      0.105879      -8.94415    0.00282522     0.0134731   -0.00540161
            6     -0.156366      0.108917      -8.94476    0.00244959     0.0123395   -0.00499668
         6.05     -0.151869      0.111878      -8.94547    0.00206022      0.011163   -0.00457694
          6.1     -0.146968      0.114757       -8.9463    0.00165777    0.00994541    -0.0041431
         6.15     -0.141668       0.11755      -8.94724     0.0012429    0.00868877   -0.00369591
          6.2     -0.135974       0.12025      -8.94829   0.000816346     0.0073951   -0.00323623
         6.25     -0.129894      0.122853      -8.94945   0.000378874    0.00606658   -0.00276495
          6.3     -0.123435      0.125354      -8.95072  -6.8714e-005    0.00470548   -0.00228301
         6.35     -0.116607      0.127747      -8.95211  -0.000525579    0.00331422   -0.00179144
          6.4     -0.109419      0.130028       -8.9536  -0.000990845    0.00189531    -0.0012913
         6.45     -0.101882      0.132191      -8.95521    -0.0014636   0.000451355  -0.000783707
          6.5    -0.0940081      0.134232      -8.95692   -0.00194292   -0.00101492  -0.000269829
         6.55    -0.0858105      0.136146      -8.95875   -0.00242781   -0.00250071   0.000249121
          6.6    -0.0773025      0.137928      -8.96067   -0.00291729   -0.00400311   0.000771889
         6.65    -0.0684988      0.139574      -8.96271   -0.00341034   -0.00551913    0.00129718
          6.7    -0.0594149       0.14108      -8.96484    -0.0039059   -0.00704571    0.00182368
         6.75    -0.0500672       0.14244      -8.96708   -0.00440291   -0.00857969    0.00235001
          6.8    -0.0404729      0.143652      -8.96941   -0.00490027    -0.0101179     0.0028748
         6.85    -0.0306499      0.144711      -8.97183    -0.0053969     -0.011657    0.00339666
          6.9     -0.020617      0.145613      -8.97435   -0.00589166    -0.0131937    0.00391415
         6.95    -0.0103937      0.146355      -8.97696   -0.00638344    -0.0147246    0.00442584
            7 -3.58026e-015      0.146934      -8.97965   -0.00687108    -0.0162464    0.00493031
         7.05     0.0105432      0.147345      -8.98242   -0.00735344    -0.0177555    0.00542611
          7.1     0.0212146      0.147586      -8.98527   -0.00782938    -0.0192485    0.00591181
         7.15     0.0319923      0.147654      -8.98819   -0.00829773     -0.020722    0.00638598
          7.2     0.0428537      0.147547      -8.99118   -0.00875735    -0.0221723    0.00684722
         7.25     0.0537759      0.147262      -8.99423   -0.00920709    -0.0235961    0.00729412
          7.3     0.0647356      0.146797      -8.99734    -0.0096458    -0.0249898    0.00772533
         7.35     0.0757092      0.146151      -9.00051    -0.0100723    -0.0263499     0.0081395
          7.4     0.0866725      0.145321      -9.00373    -0.0104856    -0.0276731    0.00853533
         7.45     0.0976012      0.144307      -9.00698    -0.0108845    -0.0289559    0.00891155
          7.5      0.108471      0.143107      -9.01028    -0.0112679     -0.030195    0.00926695
         7.55      0.119257      0.141721      -9.01361    -0.0116347    -0.0313869    0.00960035
          7.6      0.129934      0.140149      -9.01697    -0.0119839    -0.0325285    0.00991063
         7.65      0.140479       0.13839      -9.02034    -0.0123144    -0.0336165     0.0101967
          7.7      0.150865      0.136445      -9.02373    -0.0126253    -0.0346478     0.0104576
         7.75      0.161068      0.134315      -9.02713    -0.0129156    -0.0356194     0.0106924
          7.8      0.171064         0.132      -9.03053    -0.0131843    -0.0365283     0.0109002
         7.85      0.180828      0.129502      -9.03393    -0.0134305    -0.0373717     0.0110801
          7.9      0.190336      0.126822      -9.03732    -0.0136533    -0.0381467     0.0112316
         7.95      0.199564      0.123963      -9.04068    -0.0138519    -0.0388509     0.0113539
            8      0.208488      0.120928      -9.04403    -0.0140254    -0.0394815     0.0114464
         8.05      0.217086      0.117718      -9.04734    -0.0141732    -0.0400364     0.0115087
          8.1      0.225335      0.114337      -9.05062    -0.0142945    -0.0405131     0.0115404
         8.15      0.233212      0.110789      -9.05385    -0.0143886    -0.0409097     0.0115412
          8.2      0.240696      0.107078      -9.05703    -0.0144548    -0.0412241     0.0115109
         8.25      0.247766      0.103208      -9.06015    -0.0144927    -0.0414545     0.0114493
          8.3      0.254403     0.0991833      -9.06321    -0.0145016    -0.0415993     0.0113564
         8.35      0.260585       0.09501       -9.0662     -0.014481     -0.041657     0.0112324
          8.4      0.266296     0.0906932      -9.06911    -0.0144306    -0.0416263     0.0110773
         8.45      0.271516     0.0862387      -9.07194      -0.01435     -0.041506     0.0108915
          8.5       0.27623     0.0816529      -9.07467    -0.0142388    -0.0412952     0.0106752
         8.55       0.28042     0.0769423      -9.07731    -0.0140967    -0.0409931     0.0104291
          8.6      0.284072      0.072114      -9.07984    -0.0139235    -0.0405991     0.0101536
         8.65      0.287173     0.0671754      -9.08227    -0.0137191    -0.0401127    0.00984948
          8.7      0.289708      0.062134      -9.08458    -0.0134834    -0.0395339     0.0095174
         8.75      0.291667      0.056998      -9.08677    -0.0132163    -0.0388624    0.00915828
          8.8      0.293038     0.0517757      -9.08883    -0.0129178    -0.0380986    0.00877304
         8.85      0.293812     0.0464758      -9.09075     -0.012588    -0.0372427    0.00836274
          8.9      0.293982     0.0411072      -9.09254     -0.012227    -0.0362953     0.0079285
         8.95      0.293539     0.0356794      -9.09419    -0.0118351    -0.0352571    0.00747153
            9      0.292478     0.0302017      -9.09568    -0.0114124    -0.0341292    0.00699311
         9.05      0.290795     0.0246842      -9.09702    -0.0109593    -0.0329127     0.0064946
          9.1      0.288487     0.0191368      -9.09821    -0.0104761    -0.0316089    0.00597742
         9.15      0.285552     0.0135698      -9.09923   -0.00996337    -0.0302194    0.00544307
          9.2      0.281989     0.0079939      -9.10009   -0.00942149     -0.028746    0.00489309
         9.25      0.277799    0.00241968      -9.10077   -0.00885107    -0.0271906    0.00432907
          9.3      0.272985    -0.0031419      -9.10128   -0.00825271    -0.0255553    0.00375263
         9.35       0.26755   -0.00867979      -9.10162   -0.00762712    -0.0238426    0.00316546
          9.4        0.2615    -0.0141828      -9.10178   -0.00697503    -0.0220549    0.00256925
         9.45       0.25484    -0.0196396      -9.10175   -0.00629727     -0.020195    0.00196572
          9.5       0.24758    -0.0250388      -9.10154    -0.0055947    -0.0182658    0.00135661
         9.55      0.239728     -0.030369      -9.10115   -0.00486827    -0.0162704    0.00074366
          9.6      0.231294    -0.0356187      -9.10056   -0.00411897    -0.0142121   0.000128621
         9.65      0.222292    -0.0407763      -9.09979   -0.00334787    -0.0120942  -0.000486787
          9.7      0.212734    -0.0458304      -9.09883   -0.00255609    -0.0099205   -0.00110086
         9.75      0.202634    -0.0507695      -9.09768   -0.00174482   -0.00769467    -0.0017119
          9.8       0.19201    -0.0555821      -9.09634  -0.000915308   -0.00542067   -0.00231826
         9.85      0.180878    -0.0602571      -9.09481 -6.88681e-005   -0.00310257   -0.00291831
          9.9      0.169257    -0.0647833      -9.09309   0.000793134  -0.000744592   -0.00351047
         9.95      0.157166    -0.0691496      -9.09118    0.00166927    0.00164889    -0.0040932
           10      0.144628    -0.0733451      -9.08908    0.00255805    0.00407341   -0.00466502
        10.05      0.131663    -0.0773593      -9.08681    0.00345793    0.00652433   -0.00522449
