hotint output data
notes: time (s), wave elevation (m), surge (m), heave (m), pitch (rads), flap 1 pitch (rads), flap 2 pitch (rads)
amplitude: -1m, period: 13s
            0            -0 -3.12247e-006      -9.00001 -3.72957e-007 -3.22928e-006  2.84825e-006
         0.05  4.02729e-005 -1.57212e-005      -9.00003 -1.88434e-006 -1.61362e-005  1.38968e-005
          0.1   0.000161045 -4.12999e-005      -9.00007 -4.96757e-006 -4.18898e-005  3.49852e-005
         0.15   0.000362174 -8.05036e-005      -9.00014 -9.70741e-006 -8.03282e-005  6.48283e-005
          0.2   0.000643426  -0.000134162      -9.00024 -1.61932e-005   -0.00013117   0.000102222
         0.25    0.00100447  -0.000203257      -9.00036 -2.45162e-005  -0.000194026   0.000146035
          0.3    0.00144489  -0.000288896       -9.0005 -3.47677e-005  -0.000268422   0.000195213
         0.35    0.00196417  -0.000392281      -9.00068 -4.70371e-005  -0.000353816   0.000248777
          0.4    0.00256169  -0.000514691      -9.00088 -6.14098e-005  -0.000449605   0.000305816
         0.45    0.00323676  -0.000657461      -9.00111 -7.79661e-005  -0.000555136   0.000365489
          0.5    0.00398859  -0.000821959      -9.00137 -9.67795e-005  -0.000669734    0.00042703
         0.55     0.0048163   -0.00100957      -9.00166  -0.000117916  -0.000792709   0.000489744
          0.6    0.00571891   -0.00122169      -9.00199  -0.000141434  -0.000923373   0.000553014
         0.65    0.00669537   -0.00145969      -9.00234   -0.00016738   -0.00106105   0.000616293
          0.7    0.00774452   -0.00172494      -9.00273  -0.000195794   -0.00120507   0.000679106
         0.75    0.00886512   -0.00201877      -9.00315  -0.000226703   -0.00135483    0.00074105
          0.8     0.0100559   -0.00234247      -9.00361  -0.000260125   -0.00150971   0.000801793
         0.85     0.0113153   -0.00269731       -9.0041  -0.000296067   -0.00166919   0.000861065
          0.9      0.012642   -0.00308448      -9.00462  -0.000334525   -0.00183274   0.000918659
         0.95     0.0140344   -0.00350514      -9.00518  -0.000375485   -0.00199993   0.000974423
            1     0.0154908    -0.0039604      -9.00578  -0.000418921   -0.00217032    0.00102826
         1.05     0.0170094    -0.0044513      -9.00641  -0.000464797   -0.00234357     0.0010801
          1.1     0.0185885   -0.00497884      -9.00708  -0.000513069   -0.00251934    0.00112995
         1.15     0.0202262   -0.00554396      -9.00778   -0.00056368   -0.00269736    0.00117781
          1.2     0.0219205   -0.00614754      -9.00852  -0.000616566   -0.00287738    0.00122374
         1.25     0.0236694   -0.00679044       -9.0093  -0.000671654   -0.00305919     0.0012678
          1.3     0.0254707   -0.00747343      -9.01011   -0.00072886   -0.00324262    0.00131008
         1.35     0.0273223   -0.00819728      -9.01096  -0.000788096    -0.0034275    0.00135066
          1.4      0.029222   -0.00896267      -9.01185  -0.000849263    -0.0036137    0.00138966
         1.45     0.0311674   -0.00977029      -9.01277  -0.000912255   -0.00380108    0.00142716
          1.5     0.0331561    -0.0106208      -9.01373  -0.000976962   -0.00398952    0.00146327
         1.55     0.0351858    -0.0115147      -9.01473   -0.00104327    -0.0041789    0.00149806
          1.6     0.0372539    -0.0124527      -9.01576   -0.00111104    -0.0043691    0.00153162
         1.65     0.0393579    -0.0134352      -9.01682   -0.00118016   -0.00455999    0.00156401
          1.7     0.0414952    -0.0144629      -9.01793   -0.00125049   -0.00475142    0.00159526
         1.75     0.0436631    -0.0155361      -9.01906   -0.00132189   -0.00494325    0.00162541
          1.8     0.0458589    -0.0166555      -9.02023   -0.00139422    -0.0051353    0.00165446
         1.85     0.0480799    -0.0178215      -9.02144   -0.00146733   -0.00532739    0.00168241
          1.9     0.0503233    -0.0190345      -9.02267   -0.00154108   -0.00551931    0.00170922
         1.95     0.0525861    -0.0202949      -9.02394    -0.0016153   -0.00571084    0.00173486
            2     0.0548656    -0.0216033      -9.02524   -0.00168985   -0.00590174    0.00175926
         2.05     0.0571588      -0.02296      -9.02657   -0.00176456   -0.00609175    0.00178234
          2.1     0.0594628    -0.0243655      -9.02793   -0.00183928   -0.00628059    0.00180401
         2.15     0.0617745    -0.0258201      -9.02932   -0.00191385   -0.00646798    0.00182417
          2.2      0.064091    -0.0273241      -9.03074   -0.00198809   -0.00665361     0.0018427
         2.25     0.0664092    -0.0288781      -9.03218   -0.00206185   -0.00683716    0.00185949
          2.3     0.0687261    -0.0304822      -9.03365   -0.00213496    -0.0070183    0.00187439
         2.35     0.0710385    -0.0321369      -9.03514   -0.00220726    -0.0071967    0.00188728
          2.4     0.0733434    -0.0338425      -9.03665   -0.00227857   -0.00737201    0.00189801
         2.45     0.0756376    -0.0355992      -9.03819   -0.00234873   -0.00754389    0.00190645
          2.5      0.077918    -0.0374074      -9.03975   -0.00241758   -0.00771198    0.00191246
         2.55     0.0801815    -0.0392672      -9.04132   -0.00248496   -0.00787595    0.00191588
          2.6     0.0824249    -0.0411789      -9.04291   -0.00255068   -0.00803544    0.00191659
         2.65      0.084645    -0.0431427      -9.04452    -0.0026146   -0.00819009    0.00191443
          2.7     0.0868388    -0.0451588      -9.04614   -0.00267655   -0.00833957    0.00190929
         2.75      0.089003    -0.0472273      -9.04777   -0.00273637   -0.00848351    0.00190102
          2.8     0.0911345    -0.0493483      -9.04941   -0.00279391   -0.00862159    0.00188949
         2.85     0.0932302    -0.0515219      -9.05106     -0.002849   -0.00875345    0.00187457
          2.9     0.0952869    -0.0537482      -9.05272   -0.00290149   -0.00887877    0.00185616
         2.95     0.0973015    -0.0560272      -9.05438   -0.00295124    -0.0089972    0.00183412
            3     0.0992709    -0.0583587      -9.05605   -0.00299809   -0.00910842    0.00180835
         3.05      0.101192    -0.0607428      -9.05771    -0.0030419    -0.0092121    0.00177873
          3.1      0.103062    -0.0631793      -9.05938   -0.00308253   -0.00930792    0.00174518
         3.15      0.104877    -0.0656681      -9.06104   -0.00311985   -0.00939558    0.00170759
          3.2      0.106636    -0.0682089       -9.0627   -0.00315371   -0.00947476    0.00166587
         3.25      0.108333    -0.0708015      -9.06434     -0.003184   -0.00954515    0.00161995
          3.3      0.109968    -0.0734456      -9.06598   -0.00321057   -0.00960648    0.00156975
         3.35      0.111536    -0.0761407      -9.06761   -0.00323333   -0.00965844    0.00151521
          3.4      0.113036    -0.0788864      -9.06922   -0.00325214   -0.00970077    0.00145626
         3.45      0.114463    -0.0816823      -9.07081   -0.00326689    -0.0097332    0.00139288
          3.5      0.115816    -0.0845278      -9.07239   -0.00327748   -0.00975547    0.00132501
         3.55      0.117092    -0.0874222      -9.07394   -0.00328381   -0.00976734    0.00125262
          3.6      0.118287    -0.0903649      -9.07547   -0.00328579   -0.00976858    0.00117572
         3.65        0.1194    -0.0933551      -9.07698    -0.0032833   -0.00975897    0.00109427
          3.7      0.120428     -0.096392      -9.07845   -0.00327629   -0.00973831    0.00100831
         3.75      0.121368    -0.0994745       -9.0799   -0.00326465   -0.00970642   0.000917825
          3.8      0.122218     -0.102602      -9.08131   -0.00324833   -0.00966312    0.00082286
         3.85      0.122975     -0.105773      -9.08268   -0.00322724   -0.00960826   0.000723449
          3.9      0.123637     -0.108986      -9.08402   -0.00320133    -0.0095417   0.000619641
         3.95      0.124203     -0.112241      -9.08531   -0.00317055   -0.00946331   0.000511497
            4      0.124669     -0.115536      -9.08656   -0.00313483   -0.00937301   0.000399087
         4.05      0.125034      -0.11887      -9.08777   -0.00309414   -0.00927069   0.000282492
          4.1      0.125295      -0.12224      -9.08892   -0.00304845   -0.00915629   0.000161803
         4.15      0.125451     -0.125647      -9.09003   -0.00299771   -0.00902975  3.71234e-005
          4.2        0.1255     -0.129087      -9.09108    -0.0029419   -0.00889104 -9.14372e-005
         4.25       0.12544     -0.132559      -9.09207   -0.00288101   -0.00874012  -0.000223758
          4.3      0.125269     -0.136062      -9.09301   -0.00281503     -0.008577  -0.000359709
         4.35      0.124986     -0.139593      -9.09388   -0.00274395   -0.00840168  -0.000499152
          4.4      0.124589     -0.143151      -9.09469   -0.00266778   -0.00821419  -0.000641938
         4.45      0.124076     -0.146733      -9.09543   -0.00258651   -0.00801456  -0.000787912
          4.5      0.123448     -0.150338      -9.09611   -0.00250018   -0.00780285  -0.000936909
         4.55      0.122701     -0.153963      -9.09671    -0.0024088   -0.00757912   -0.00108876
          4.6      0.121835     -0.157605      -9.09725    -0.0023124   -0.00734347   -0.00124327
         4.65       0.12085     -0.161263       -9.0977   -0.00221102   -0.00709599   -0.00140027
          4.7      0.119743     -0.164933      -9.09808    -0.0021047   -0.00683679   -0.00155954
         4.75      0.118514     -0.168614      -9.09837   -0.00199349   -0.00656601    -0.0017209
          4.8      0.117163     -0.172302      -9.09859   -0.00187746    -0.0062838   -0.00188412
         4.85      0.115688     -0.175995      -9.09872   -0.00175665   -0.00599032   -0.00204899
          4.9       0.11409      -0.17969      -9.09876   -0.00163115   -0.00568575   -0.00221529
         4.95      0.112368     -0.183385      -9.09871   -0.00150102   -0.00537028   -0.00238279
            5       0.11052     -0.187075      -9.09858   -0.00136637   -0.00504414   -0.00255125
         5.05      0.108548     -0.190759      -9.09834   -0.00122726   -0.00470755   -0.00272043
          5.1      0.106451     -0.194432      -9.09802   -0.00108381   -0.00436075   -0.00289009
         5.15       0.10423     -0.198093       -9.0976  -0.000936124   -0.00400401   -0.00305999
          5.2      0.101883     -0.201737      -9.09708  -0.000784303    -0.0036376   -0.00322988
         5.25     0.0994113     -0.205361      -9.09645   -0.00062847   -0.00326182   -0.00339952
          5.3     0.0968155     -0.208962      -9.09573  -0.000468749   -0.00287697   -0.00356865
         5.35     0.0940958     -0.212536       -9.0949  -0.000305272   -0.00248336   -0.00373703
          5.4     0.0912528     -0.216081      -9.09397  -0.000138177   -0.00208134   -0.00390441
         5.45      0.088287     -0.219592      -9.09293  3.23923e-005   -0.00167124   -0.00407055
          5.5     0.0851992     -0.223066      -9.09179   0.000206285   -0.00125342   -0.00423523
         5.55     0.0819904     -0.226499      -9.09053   0.000383343  -0.000828246   -0.00439819
          5.6     0.0786615     -0.229887      -9.08916   0.000563403  -0.000396105   -0.00455922
         5.65     0.0752137     -0.233228      -9.08769   0.000746296  4.26183e-005    -0.0047181
          5.7      0.071648     -0.236517      -9.08609   0.000931845   0.000487522   -0.00487461
         5.75     0.0679659      -0.23975      -9.08439    0.00111987   0.000938194   -0.00502855
          5.8     0.0641689     -0.242924      -9.08257    0.00131018    0.00139422   -0.00517972
         5.85     0.0602583     -0.246035      -9.08064    0.00150259    0.00185515   -0.00532793
          5.9      0.056236     -0.249079      -9.07859    0.00169688    0.00232057   -0.00547302
         5.95     0.0521036     -0.252052      -9.07642    0.00189287    0.00279001   -0.00561481
            6     0.0478631     -0.254951      -9.07414    0.00209034    0.00326303   -0.00575315
         6.05     0.0435165     -0.257771      -9.07174    0.00228907    0.00373914    -0.0058879
          6.1     0.0390658     -0.260509      -9.06923    0.00248884    0.00421788   -0.00601892
         6.15     0.0345132     -0.263162      -9.06659    0.00268943    0.00469876    -0.0061461
          6.2     0.0298611     -0.265724      -9.06384    0.00289061    0.00518129   -0.00626933
         6.25     0.0251118     -0.268194      -9.06097    0.00309214    0.00566497   -0.00638851
          6.3     0.0202679     -0.270566      -9.05799    0.00329378    0.00614929   -0.00650358
         6.35      0.015332     -0.272837      -9.05489     0.0034953    0.00663375   -0.00661445
          6.4     0.0103069     -0.275004      -9.05167    0.00369644    0.00711783   -0.00672108
         6.45    0.00519521     -0.277063      -9.04834    0.00389695    0.00760101   -0.00682342
          6.5  1.66226e-015      -0.27901      -9.04489    0.00409657    0.00808277   -0.00692145
         6.55   -0.00527575     -0.280842      -9.04133    0.00429507    0.00856257   -0.00701514
          6.6    -0.0106289     -0.282555      -9.03765    0.00449216     0.0090399    -0.0071045
         6.65    -0.0160564     -0.284147      -9.03386     0.0046876    0.00951422   -0.00718954
          6.7    -0.0215548     -0.285613      -9.02996    0.00488112      0.009985   -0.00727027
         6.75    -0.0271208      -0.28695      -9.02596    0.00507245     0.0104517   -0.00734673
          6.8    -0.0327509     -0.288156      -9.02184    0.00526133     0.0109138   -0.00741896
         6.85    -0.0384415     -0.289227      -9.01762    0.00544749     0.0113708   -0.00748701
          6.9    -0.0441891      -0.29016      -9.01329    0.00563067     0.0118221   -0.00755094
         6.95      -0.04999     -0.290953      -9.00886     0.0058106     0.0122672   -0.00761083
            7    -0.0558403     -0.291602      -9.00433    0.00598701     0.0127057   -0.00766675
         7.05    -0.0617362     -0.292104       -8.9997    0.00615963     0.0131368    -0.0077188
          7.1    -0.0676738     -0.292458      -8.99497     0.0063282     0.0135603   -0.00776705
         7.15    -0.0736491      -0.29266      -8.99015    0.00649247     0.0139754   -0.00781162
          7.2    -0.0796579     -0.292709      -8.98523    0.00665216     0.0143818    -0.0078526
         7.25    -0.0856962     -0.292601      -8.98023    0.00680703     0.0147788   -0.00789011
          7.3    -0.0917597     -0.292335      -8.97514    0.00695681     0.0151661   -0.00792426
         7.35    -0.0978443     -0.291909      -8.96997    0.00710125      0.015543   -0.00795516
          7.4     -0.103946     -0.291321      -8.96471    0.00724011     0.0159092   -0.00798294
         7.45     -0.110059     -0.290569      -8.95938    0.00737315     0.0162641   -0.00800771
          7.5     -0.116181     -0.289651      -8.95397    0.00750011     0.0166072   -0.00802959
         7.55     -0.122306     -0.288566      -8.94849    0.00762078     0.0169381   -0.00804871
          7.6      -0.12843     -0.287312      -8.94294    0.00773493     0.0172563   -0.00806519
         7.65     -0.134548     -0.285888      -8.93732    0.00784232     0.0175614   -0.00807916
          7.7     -0.140657     -0.284294      -8.93165    0.00794275     0.0178529   -0.00809074
         7.75      -0.14675     -0.282528      -8.92592    0.00803601     0.0181304   -0.00810004
          7.8     -0.152824     -0.280589      -8.92013    0.00812189     0.0183935    -0.0081072
         7.85     -0.158874     -0.278477      -8.91429    0.00820021     0.0186417   -0.00811232
          7.9     -0.164895     -0.276191      -8.90841    0.00827076     0.0188747   -0.00811552
         7.95     -0.170883     -0.273731      -8.90249    0.00833339     0.0190921   -0.00811692
            8     -0.176833     -0.271096      -8.89653    0.00838791     0.0192935   -0.00811662
         8.05     -0.182739     -0.268288      -8.89054    0.00843417     0.0194785   -0.00811473
          8.1     -0.188598     -0.265305      -8.88451    0.00847202     0.0196469   -0.00811133
         8.15     -0.194404     -0.262148      -8.87847    0.00850132     0.0197983   -0.00810653
          8.2     -0.200153     -0.258817       -8.8724    0.00852193     0.0199323   -0.00810041
         8.25      -0.20584     -0.255313      -8.86632    0.00853373     0.0200487   -0.00809304
          8.3     -0.211461     -0.251638      -8.86023    0.00853662     0.0201471    -0.0080845
         8.35     -0.217009     -0.247791      -8.85414     0.0085305     0.0202274   -0.00807484
          8.4     -0.222482     -0.243774      -8.84804    0.00851527     0.0202893   -0.00806412
         8.45     -0.227873     -0.239587      -8.84195    0.00849086     0.0203325   -0.00805238
          8.5     -0.233179     -0.235234      -8.83587    0.00845722     0.0203568   -0.00803964
         8.55     -0.238394     -0.230714       -8.8298    0.00841428     0.0203621   -0.00802593
          8.6     -0.243514      -0.22603      -8.82376      0.008362     0.0203481   -0.00801125
         8.65     -0.248535     -0.221184      -8.81774    0.00830037     0.0203147   -0.00799559
          8.7     -0.253451     -0.216177      -8.81175    0.00822937     0.0202619   -0.00797895
         8.75     -0.258258     -0.211012      -8.80579    0.00814899     0.0201894   -0.00796128
          8.8     -0.262952     -0.205691      -8.79988    0.00805926     0.0200972   -0.00794255
         8.85     -0.267528     -0.200217      -8.79401    0.00796019     0.0199852   -0.00792269
          8.9     -0.271982     -0.194592       -8.7882    0.00785183     0.0198535   -0.00790164
         8.95     -0.276309     -0.188819      -8.78244    0.00773423     0.0197019   -0.00787933
            9     -0.280505     -0.182901      -8.77675    0.00760746     0.0195305   -0.00785565
         9.05     -0.284566     -0.176841      -8.77112     0.0074716     0.0193394    -0.0078305
          9.1     -0.288487     -0.170642      -8.76557    0.00732675     0.0191286   -0.00780377
         9.15     -0.292265     -0.164308       -8.7601    0.00717301     0.0188982   -0.00777533
          9.2     -0.295895     -0.157842      -8.75471    0.00701052     0.0186483   -0.00774505
         9.25     -0.299374     -0.151248      -8.74941    0.00683941      0.018379   -0.00771279
          9.3     -0.302697     -0.144529      -8.74421    0.00665984     0.0180905   -0.00767839
         9.35      -0.30586     -0.137689      -8.73911    0.00647195      0.017783   -0.00764171
          9.4     -0.308861     -0.130733      -8.73412    0.00627595     0.0174567   -0.00760259
         9.45     -0.311695     -0.123664      -8.72924      0.006072     0.0171118   -0.00756086
          9.5     -0.314358     -0.116486      -8.72448    0.00586033     0.0167486   -0.00751636
         9.55     -0.316847     -0.109204      -8.71984    0.00564115     0.0163674   -0.00746892
          9.6     -0.319159     -0.101822      -8.71533    0.00541468     0.0159685   -0.00741839
         9.65     -0.321291    -0.0943455      -8.71095    0.00518117     0.0155521   -0.00736459
          9.7     -0.323239     -0.086778      -8.70671    0.00494086     0.0151188   -0.00730738
         9.75        -0.325    -0.0791247      -8.70262    0.00469403     0.0146687   -0.00724661
          9.8     -0.326571    -0.0713902      -8.69867    0.00444093     0.0142025   -0.00718213
         9.85      -0.32795    -0.0635797      -8.69489    0.00418186     0.0137204   -0.00711382
          9.9     -0.329133    -0.0556979      -8.69126    0.00391711     0.0132229   -0.00704153
         9.95     -0.330118    -0.0477502      -8.68779    0.00364697     0.0127105   -0.00696516
           10     -0.330903    -0.0397415       -8.6845    0.00337176     0.0121837    -0.0068846
        10.05     -0.331485    -0.0316772      -8.68138    0.00309179      0.011643   -0.00679975
