hotint output data
notes: time (s), wave elevation (m), surge (m), heave (m), pitch (rads), flap 1 pitch (rads), flap 2 pitch (rads)
amplitude: -1m, period: 8s
            0            -0 -6.58018e-006      -9.00001 -8.18752e-007 -1.09355e-005    9.796e-007
         0.05   6.5433e-005 -3.44311e-005      -9.00005 -4.18291e-006 -5.39275e-005  5.17798e-006
          0.1    0.00026153 -9.45445e-005      -9.00013 -1.11627e-005   -0.00013768  1.43435e-005
         0.15   0.000587687  -0.000192346      -9.00025 -2.20512e-005  -0.000259243  2.93235e-005
          0.2     0.0010429  -0.000332622      -9.00041 -3.70803e-005  -0.000415667  5.07248e-005
         0.25    0.00162575  -0.000519563      -9.00061 -5.64226e-005  -0.000603985  7.89495e-005
          0.3    0.00233445  -0.000756797      -9.00085 -8.01944e-005  -0.000821242   0.000114224
         0.35    0.00316681   -0.00104741      -9.00112  -0.000108459    -0.0010645   0.000156624
          0.4    0.00412023     -0.001394      -9.00144  -0.000141226   -0.00133082   0.000206108
         0.45    0.00519176   -0.00179866       -9.0018  -0.000178458    -0.0016173   0.000262528
          0.5    0.00637806   -0.00226302      -9.00219   -0.00022007   -0.00192109   0.000325657
         0.55    0.00767543   -0.00278826      -9.00262  -0.000265933   -0.00223941   0.000395198
          0.6    0.00907981   -0.00337512      -9.00309  -0.000315877   -0.00256961   0.000470806
         0.65     0.0105868   -0.00402393      -9.00359  -0.000369694   -0.00290914   0.000552102
          0.7     0.0121916   -0.00473462      -9.00413  -0.000427141   -0.00325559   0.000638681
         0.75     0.0138893   -0.00550675       -9.0047  -0.000487944   -0.00360668   0.000730126
          0.8     0.0156743   -0.00633954       -9.0053  -0.000551801   -0.00396032   0.000826017
         0.85      0.017541   -0.00723189      -9.00593  -0.000618383   -0.00431458   0.000925939
          0.9     0.0194834   -0.00818242      -9.00659  -0.000687342   -0.00466768    0.00102949
         0.95     0.0214954   -0.00918948      -9.00728  -0.000758308     -0.005018    0.00113628
            1     0.0235702    -0.0102512      -9.00799  -0.000830898   -0.00536408    0.00124595
         1.05     0.0257013    -0.0113654      -9.00872  -0.000904714   -0.00570464    0.00135814
          1.1     0.0278816    -0.0125298      -9.00948  -0.000979351   -0.00603852    0.00147255
         1.15     0.0301038    -0.0137421      -9.01025   -0.00105439   -0.00636468    0.00158887
          1.2     0.0323607    -0.0149995      -9.01104   -0.00112942   -0.00668222    0.00170684
         1.25     0.0346446    -0.0162995      -9.01185   -0.00120402   -0.00699036    0.00182618
          1.3     0.0369477    -0.0176392      -9.01266   -0.00127776   -0.00728839    0.00194669
         1.35     0.0392623    -0.0190157      -9.01349   -0.00135022   -0.00757569    0.00206813
          1.4     0.0415803    -0.0204262      -9.01432   -0.00142099   -0.00785169    0.00219031
         1.45     0.0438936    -0.0218677      -9.01516   -0.00148965   -0.00811589    0.00231302
          1.5      0.046194    -0.0233372        -9.016   -0.00155581   -0.00836782    0.00243609
         1.55     0.0484732    -0.0248317      -9.01683   -0.00161905   -0.00860703    0.00255933
          1.6      0.050723    -0.0263483      -9.01767     -0.001679   -0.00883307    0.00268254
         1.65      0.052935    -0.0278839      -9.01849   -0.00173528   -0.00904551    0.00280554
          1.7      0.055101    -0.0294355      -9.01931   -0.00178751   -0.00924392    0.00292813
         1.75     0.0572125    -0.0310002      -9.02011   -0.00183534   -0.00942785    0.00305009
          1.8     0.0592613     -0.032575       -9.0209   -0.00187842   -0.00959684    0.00317121
         1.85     0.0612392     -0.034157      -9.02167   -0.00191643   -0.00975041    0.00329124
          1.9     0.0631381    -0.0357432      -9.02241   -0.00194905   -0.00988807    0.00340993
         1.95     0.0649499    -0.0373308      -9.02313   -0.00197596    -0.0100093      0.003527
            2     0.0666667    -0.0389167      -9.02382   -0.00199689    -0.0101136    0.00364218
         2.05     0.0682807    -0.0404981      -9.02449   -0.00201156    -0.0102004    0.00375514
          2.1     0.0697842    -0.0420722      -9.02511   -0.00201971    -0.0102693    0.00386558
         2.15     0.0711699    -0.0436359       -9.0257   -0.00202111    -0.0103195    0.00397316
          2.2     0.0724305    -0.0451866      -9.02625   -0.00201552    -0.0103507    0.00407753
         2.25     0.0735589    -0.0467212      -9.02676   -0.00200274    -0.0103623    0.00417832
          2.3     0.0745484    -0.0482369      -9.02722   -0.00198258    -0.0103538    0.00427518
         2.35     0.0753923    -0.0497308      -9.02763   -0.00195488    -0.0103247    0.00436773
          2.4     0.0760845    -0.0512001      -9.02799   -0.00191949    -0.0102746     0.0044556
         2.45      0.076619     -0.052642       -9.0283   -0.00187627    -0.0102029     0.0045384
          2.5       0.07699    -0.0540534      -9.02855   -0.00182512    -0.0101095    0.00461576
         2.55     0.0771922    -0.0554317      -9.02873   -0.00176594   -0.00999379    0.00468732
          2.6     0.0772206     -0.056774      -9.02886   -0.00169868   -0.00985563    0.00475271
         2.65     0.0770705    -0.0580774      -9.02892   -0.00162328   -0.00969472    0.00481158
          2.7     0.0767376    -0.0593392      -9.02891   -0.00153972   -0.00951085     0.0048636
         2.75      0.076218    -0.0605565      -9.02884   -0.00144801   -0.00930386    0.00490843
          2.8     0.0755083    -0.0617266      -9.02869   -0.00134816   -0.00907364    0.00494578
         2.85     0.0746051    -0.0628467      -9.02847   -0.00124021    -0.0088201    0.00497535
          2.9     0.0735059    -0.0639142      -9.02817   -0.00112424   -0.00854325    0.00499688
         2.95     0.0722084    -0.0649261       -9.0278   -0.00100033   -0.00824311    0.00501011
            3     0.0707107      -0.06588      -9.02735  -0.000868599   -0.00791976    0.00501482
         3.05     0.0690114    -0.0667732      -9.02681  -0.000729175   -0.00757333     0.0050108
          3.1     0.0671096    -0.0676029       -9.0262  -0.000582217   -0.00720401    0.00499786
         3.15     0.0650049    -0.0683667       -9.0255  -0.000427902   -0.00681204    0.00497586
          3.2     0.0626971    -0.0690619      -9.02472  -0.000266432   -0.00639769    0.00494465
         3.25     0.0601868     -0.069686      -9.02385 -9.80278e-005   -0.00596132    0.00490413
          3.3     0.0574748    -0.0702366       -9.0229  7.70672e-005   -0.00550332     0.0048542
         3.35     0.0545627    -0.0707111      -9.02186   0.000258589   -0.00502415    0.00479482
          3.4     0.0514523    -0.0711071      -9.02073   0.000446253   -0.00452433    0.00472593
         3.45     0.0481459    -0.0714223      -9.01952   0.000639755   -0.00400445    0.00464755
          3.5     0.0446464    -0.0716542      -9.01821   0.000838771   -0.00346513    0.00455968
         3.55     0.0409572    -0.0718007      -9.01683    0.00104296   -0.00290709    0.00446237
          3.6      0.037082    -0.0718594      -9.01535    0.00125195   -0.00233109     0.0043557
         3.65     0.0330253    -0.0718281      -9.01379    0.00146537   -0.00173798    0.00423977
          3.7     0.0287916    -0.0717048      -9.01215    0.00168281   -0.00112864    0.00411471
         3.75     0.0243863    -0.0714872      -9.01042    0.00190387  -0.000504038    0.00398068
          3.8      0.019815    -0.0711735      -9.00861    0.00212811   0.000134802    0.00383786
         3.85      0.015084    -0.0707617      -9.00671    0.00235508   0.000786799    0.00368647
          3.9     0.0101997    -0.0702499      -9.00474    0.00258432    0.00145081    0.00352676
         3.95    0.00516921    -0.0696363      -9.00268    0.00281534    0.00212565      0.003359
            4  6.67659e-016    -0.0689192      -9.00055    0.00304766    0.00281007     0.0031835
         4.05   -0.00530008    -0.0680971      -8.99834    0.00328078    0.00350277    0.00300058
          4.1    -0.0107227    -0.0671685      -8.99607    0.00351417    0.00420241     0.0028106
         4.15    -0.0162593    -0.0661319      -8.99372    0.00374731    0.00490762    0.00261395
          4.2    -0.0219008    -0.0649861       -8.9913    0.00397967    0.00561698    0.00241105
         4.25    -0.0276378    -0.0637299      -8.98882    0.00421069    0.00632904    0.00220232
          4.3    -0.0334605    -0.0623622      -8.98628    0.00443982    0.00704231    0.00198824
         4.35    -0.0393589    -0.0608821      -8.98368    0.00466651     0.0077553    0.00176928
          4.4    -0.0453225    -0.0592888      -8.98103    0.00489019    0.00846646    0.00154596
         4.45    -0.0513407    -0.0575816      -8.97832    0.00511028    0.00917425    0.00131879
          4.5    -0.0574025      -0.05576      -8.97557    0.00532623     0.0098771    0.00108834
         4.55    -0.0634967    -0.0538234      -8.97277    0.00553745     0.0105734   0.000855173
          4.6    -0.0696119    -0.0517718      -8.96993    0.00574336     0.0112616   0.000619866
         4.65    -0.0757363    -0.0496048      -8.96706    0.00594341       0.01194   0.000383022
          4.7    -0.0818581    -0.0473226      -8.96416    0.00613701     0.0126071   0.000145256
         4.75    -0.0879653    -0.0449253      -8.96123    0.00632359     0.0132612 -9.28055e-005
          4.8    -0.0940456    -0.0424132      -8.95827     0.0065026     0.0139008  -0.000330524
         4.85     -0.100087    -0.0397867       -8.9553    0.00667347     0.0145241  -0.000567252
          4.9     -0.106077    -0.0370466      -8.95232    0.00683565     0.0151295  -0.000802337
         4.95     -0.112002    -0.0341935      -8.94933     0.0069886     0.0157156   -0.00103512
            5     -0.117851    -0.0312285      -8.94634    0.00713179     0.0162806   -0.00126493
         5.05     -0.123611    -0.0281527      -8.94336    0.00726469     0.0168229   -0.00149112
          5.1     -0.129269    -0.0249674      -8.94038    0.00738679     0.0173412   -0.00171301
         5.15     -0.134813    -0.0216742      -8.93742     0.0074976     0.0178337   -0.00192995
          5.2      -0.14023    -0.0182746      -8.93447    0.00759661      0.018299   -0.00214128
         5.25     -0.145507    -0.0147705      -8.93155    0.00768338     0.0187356   -0.00234637
          5.3     -0.150633     -0.011164      -8.92866    0.00775744      0.019142   -0.00254456
         5.35     -0.155595   -0.00745725      -8.92581    0.00781836      0.019517   -0.00273525
          5.4     -0.160381   -0.00365276        -8.923    0.00786573      0.019859   -0.00291782
         5.45     -0.164979   0.000246912      -8.92023    0.00789914     0.0201669   -0.00309169
          5.5     -0.169378    0.00423894      -8.91752    0.00791822     0.0204393    -0.0032563
         5.55     -0.173565    0.00832034      -8.91487    0.00792263      0.020675   -0.00341109
          5.6     -0.177531     0.0124879      -8.91229    0.00791202      0.020873   -0.00355556
         5.65     -0.181262     0.0167382      -8.90977     0.0078861      0.021032   -0.00368921
          5.7      -0.18475     0.0210678      -8.90734    0.00784459      0.021151   -0.00381159
         5.75     -0.187984     0.0254727      -8.90498    0.00778722     0.0212292   -0.00392227
          5.8     -0.190953      0.029949      -8.90271    0.00771378     0.0212656   -0.00402086
         5.85     -0.193648     0.0344927      -8.90053    0.00762407     0.0212593   -0.00410701
          5.9      -0.19606     0.0390992      -8.89846    0.00751792     0.0212096    -0.0041804
         5.95      -0.19818      0.043764      -8.89648    0.00739518     0.0211158   -0.00424076
            6          -0.2     0.0484823      -8.89462    0.00725575     0.0209774   -0.00428785
         6.05     -0.201511     0.0532493      -8.89287    0.00709954     0.0207937   -0.00432148
          6.1     -0.202707     0.0580598      -8.89124    0.00692652     0.0205644    -0.0043415
         6.15     -0.203579     0.0629085      -8.88974    0.00673666      0.020289   -0.00434781
          6.2     -0.204122     0.0677898      -8.88836    0.00652999     0.0199672   -0.00434035
         6.25      -0.20433     0.0726981      -8.88712    0.00630655      0.019599   -0.00431911
          6.3     -0.204198     0.0776275      -8.88602    0.00606643     0.0191841   -0.00428411
         6.35      -0.20372      0.082572      -8.88506    0.00580975     0.0187226   -0.00423543
          6.4     -0.202892     0.0875254      -8.88425    0.00553665     0.0182145   -0.00417318
         6.45     -0.201711     0.0924813      -8.88359    0.00524734       0.01766   -0.00409755
          6.5     -0.200174     0.0974332      -8.88309    0.00494202     0.0170594   -0.00400872
         6.55     -0.198278      0.102374      -8.88274    0.00462097      0.016413   -0.00390695
          6.6     -0.196021      0.107298      -8.88256    0.00428447     0.0157213   -0.00379253
         6.65     -0.193403      0.112197      -8.88254    0.00393284     0.0149848   -0.00366578
          6.7     -0.190423      0.117065      -8.88269    0.00356647     0.0142042   -0.00352709
         6.75     -0.187081      0.121894      -8.88301    0.00318573     0.0133802   -0.00337685
          6.8     -0.183377      0.126676      -8.88351    0.00279108     0.0125138   -0.00321551
         6.85     -0.179314      0.131406      -8.88418    0.00238297     0.0116058   -0.00304353
          6.9     -0.174893      0.136074      -8.88503    0.00196192     0.0106572   -0.00286143
         6.95     -0.170118      0.140673      -8.88607    0.00152846    0.00966936   -0.00266973
            7     -0.164992      0.145197      -8.88728    0.00108315    0.00864337     -0.002469
         7.05     -0.159518      0.149636      -8.88867   0.000626622    0.00758061   -0.00225982
          7.1     -0.153703      0.153983      -8.89025   0.000159496    0.00648253   -0.00204281
         7.15     -0.147551      0.158231      -8.89201  -0.000317554    0.00535065   -0.00181858
          7.2     -0.141068      0.162371      -8.89396  -0.000803824     0.0041866    -0.0015878
         7.25     -0.134263      0.166396      -8.89609   -0.00129858    0.00299211   -0.00135111
          7.3     -0.127141      0.170297      -8.89841   -0.00180107    0.00176897    -0.0011092
         7.35     -0.119712      0.174068      -8.90091   -0.00231049   0.000519073  -0.000862754
          7.4     -0.111984        0.1777      -8.90359   -0.00282602  -0.000755595  -0.000612464
         7.45     -0.103967      0.181186      -8.90645   -0.00334683   -0.00205298  -0.000359035
          7.5    -0.0956709      0.184517       -8.9095   -0.00387204   -0.00337095  -0.000103171
         7.55    -0.0871061      0.187687      -8.91272   -0.00440076   -0.00470728   0.000154419
          7.6    -0.0782843      0.190688      -8.91612   -0.00493207   -0.00605971   0.000413029
         7.65    -0.0692173      0.193512      -8.91969   -0.00546503   -0.00742587   0.000671953
          7.7    -0.0599176      0.196153      -8.92343   -0.00599868   -0.00880335   0.000930492
         7.75    -0.0503983      0.198603      -8.92734   -0.00653205    -0.0101897    0.00118795
          7.8     -0.040673      0.200855      -8.93142   -0.00706415    -0.0115824    0.00144366
         7.85    -0.0307556      0.202903      -8.93566   -0.00759396    -0.0129788    0.00169693
          7.9    -0.0206609       0.20474      -8.94005   -0.00812048    -0.0143763    0.00194711
         7.95    -0.0104039       0.20636       -8.9446   -0.00864265    -0.0157723    0.00219357
            8 -4.32857e-015      0.207757      -8.94929   -0.00915945     -0.017164    0.00243567
         8.05     0.0105347      0.208925      -8.95413   -0.00966983    -0.0185488    0.00267282
          8.1      0.021184      0.209858      -8.95911    -0.0101727    -0.0199238    0.00290443
         8.15      0.031931      0.210552      -8.96422    -0.0106671    -0.0212863    0.00312994
          8.2     0.0427588      0.211001      -8.96946    -0.0111518    -0.0226335    0.00334884
         8.25     0.0536498      0.211201      -8.97482    -0.0116259    -0.0239625    0.00356061
          8.3     0.0645866      0.211147      -8.98029    -0.0120883    -0.0252706    0.00376479
         8.35     0.0755509      0.210836      -8.98587    -0.0125378     -0.026555    0.00396094
          8.4     0.0865248      0.210263      -8.99155    -0.0129736    -0.0278127    0.00414866
         8.45     0.0974896      0.209427      -8.99733    -0.0133945    -0.0290411    0.00432757
          8.5      0.108427      0.208323      -9.00319    -0.0137995    -0.0302373    0.00449734
         8.55      0.119318       0.20695      -9.00914    -0.0141875    -0.0313985    0.00465768
          8.6      0.130144      0.205306      -9.01515    -0.0145577    -0.0325222    0.00480834
         8.65      0.140886      0.203389      -9.02123    -0.0149089    -0.0336054     0.0049491
          8.7      0.151525      0.201197      -9.02737    -0.0152402    -0.0346457    0.00507978
         8.75      0.162041      0.198731      -9.03355    -0.0155507    -0.0356403    0.00520026
          8.8      0.172417      0.195991      -9.03977    -0.0158393    -0.0365867    0.00531043
         8.85      0.182633      0.192975      -9.04602    -0.0161054    -0.0374824    0.00541026
          8.9       0.19267      0.189686      -9.05229    -0.0163478    -0.0383251    0.00549972
         8.95      0.202509      0.186124      -9.05857    -0.0165658    -0.0391122    0.00557885
            9      0.212132      0.182292      -9.06486    -0.0167586    -0.0398415     0.0056477
         9.05      0.221521       0.17819      -9.07114    -0.0169254    -0.0405108    0.00570638
          9.1      0.230656      0.173823      -9.07741    -0.0170654     -0.041118    0.00575502
         9.15      0.239522      0.169194      -9.08365    -0.0171778     -0.041661    0.00579379
          9.2      0.248099      0.164306      -9.08985    -0.0172621    -0.0421379    0.00582289
         9.25       0.25637      0.159163      -9.09601    -0.0173175    -0.0425469    0.00584253
          9.3      0.264318       0.15377      -9.10212    -0.0173434    -0.0428861    0.00585296
         9.35      0.271928      0.148133      -9.10816    -0.0173393    -0.0431541    0.00585446
          9.4      0.279182      0.142257      -9.11413    -0.0173047    -0.0433492    0.00584729
         9.45      0.286065      0.136149      -9.12001    -0.0172391    -0.0434701    0.00583177
          9.5      0.292562      0.129816       -9.1258     -0.017142    -0.0435156     0.0058082
         9.55      0.298658      0.123264      -9.13149    -0.0170132    -0.0434844    0.00577692
          9.6      0.304338      0.116501      -9.13707    -0.0168522    -0.0433756    0.00573825
         9.65       0.30959      0.109537      -9.14252    -0.0166588    -0.0431883    0.00569251
          9.7        0.3144      0.102378      -9.14784    -0.0164328    -0.0429218    0.00564001
         9.75      0.318755     0.0950353      -9.15302     -0.016174    -0.0425754    0.00558108
          9.8      0.322645     0.0875173      -9.15805    -0.0158823    -0.0421488    0.00551602
         9.85      0.326057     0.0798344      -9.16292    -0.0155577    -0.0416416    0.00544512
          9.9      0.328983     0.0719969      -9.16762    -0.0152003    -0.0410536    0.00536869
         9.95      0.331411     0.0640155      -9.17214    -0.0148099     -0.040385    0.00528698
           10      0.333333     0.0559015      -9.17647    -0.0143869    -0.0396357    0.00520028
        10.05      0.334742     0.0476663      -9.18061    -0.0139314    -0.0388062    0.00510881
