hotint output data
notes: time (s), wave elevation (m), surge (m), heave (m), pitch (rads), flap 1 pitch (rads), flap 2 pitch (rads)
amplitude: -1m, period: 9s
            0            -0 -6.50416e-006      -9.00001 -7.25963e-007 -9.59505e-006  4.65878e-006
         0.05  5.81658e-005 -3.32864e-005      -9.00004 -3.68228e-006 -4.74531e-005  2.29581e-005
          0.1   0.000232522 -8.91113e-005      -9.00011 -9.74623e-006  -0.000121586  5.85405e-005
         0.15   0.000522642  -0.000176898      -9.00021  -1.9103e-005  -0.000229823   0.000110027
          0.2   0.000927821  -0.000299424      -9.00035 -3.19123e-005  -0.000369889   0.000176006
         0.25    0.00144707   -0.00045932      -9.00052 -4.83071e-005  -0.000539407   0.000255046
          0.3    0.00207912  -0.000659052      -9.00073 -6.83931e-005  -0.000735944   0.000345715
         0.35    0.00282242  -0.000900914      -9.00097 -9.22485e-005  -0.000957032   0.000446602
          0.4    0.00367516   -0.00118702      -9.00125  -0.000119923   -0.00120017   0.000556321
         0.45    0.00463525   -0.00151931      -9.00156  -0.000151438   -0.00146283   0.000673527
          0.5    0.00570034   -0.00189949       -9.0019  -0.000186787   -0.00174256   0.000796932
         0.55    0.00686779   -0.00232908      -9.00228  -0.000225935   -0.00203693   0.000925319
          0.6    0.00813473    -0.0028094       -9.0027   -0.00026882   -0.00234362    0.00105755
         0.65    0.00949804   -0.00334153      -9.00314  -0.000315354    -0.0026604    0.00119258
          0.7     0.0109543   -0.00392635      -9.00362  -0.000365422   -0.00298516    0.00132945
         0.75        0.0125   -0.00456453      -9.00413  -0.000418888   -0.00331595     0.0014673
          0.8     0.0141312   -0.00525651      -9.00467  -0.000475591   -0.00365095    0.00160538
         0.85     0.0158438   -0.00600255      -9.00524  -0.000535349   -0.00398852    0.00174303
          0.9     0.0176336   -0.00680273      -9.00584   -0.00059796   -0.00432713     0.0018797
         0.95     0.0194959   -0.00765692      -9.00647  -0.000663206   -0.00466547    0.00201494
            1     0.0214263   -0.00856483      -9.00713   -0.00073085   -0.00500231    0.00214837
         1.05     0.0234196   -0.00952602      -9.00781  -0.000800642   -0.00533663     0.0022797
          1.1     0.0254708    -0.0105399      -9.00851  -0.000872317    -0.0056675    0.00240873
         1.15     0.0275747    -0.0116057      -9.00924  -0.000945599   -0.00599414     0.0025353
          1.2     0.0297258    -0.0127225      -9.00999    -0.0010202   -0.00631587    0.00265933
         1.25     0.0319185    -0.0138895      -9.01075   -0.00109583   -0.00663211    0.00278079
          1.3     0.0341471    -0.0151054      -9.01154   -0.00117219   -0.00694236    0.00289966
         1.35     0.0364058    -0.0163692      -9.01234   -0.00124897    -0.0072462    0.00301598
          1.4     0.0386884    -0.0176797      -9.01316   -0.00132586   -0.00754326    0.00312978
         1.45      0.040989    -0.0190354      -9.01398   -0.00140254   -0.00783318    0.00324113
          1.5     0.0433013    -0.0204351      -9.01482   -0.00147869   -0.00811566    0.00335007
         1.55      0.045619    -0.0218774      -9.01567   -0.00155401   -0.00839038    0.00345665
          1.6     0.0479357    -0.0233606      -9.01652   -0.00162817   -0.00865705     0.0035609
         1.65      0.050245    -0.0248835      -9.01738   -0.00170085   -0.00891534    0.00366284
          1.7     0.0525404    -0.0264444      -9.01824   -0.00177174   -0.00916492    0.00376246
         1.75     0.0548154    -0.0280417       -9.0191   -0.00184053   -0.00940542    0.00385971
          1.8     0.0570634    -0.0296739      -9.01996   -0.00190691   -0.00963646    0.00395453
         1.85     0.0592778    -0.0313393      -9.02081   -0.00197056    -0.0098576    0.00404683
          1.9     0.0614521    -0.0330363      -9.02165    -0.0020312    -0.0100684    0.00413645
         1.95     0.0635796    -0.0347633      -9.02249   -0.00208853    -0.0102684    0.00422325
            2     0.0656539    -0.0365184      -9.02331   -0.00214225     -0.010457    0.00430703
         2.05     0.0676683    -0.0383001      -9.02412   -0.00219208    -0.0106337    0.00438758
          2.1     0.0696165    -0.0401064      -9.02492   -0.00223775    -0.0107979    0.00446463
         2.15     0.0714921    -0.0419357      -9.02569   -0.00227898     -0.010949    0.00453793
          2.2     0.0732887    -0.0437862      -9.02644   -0.00231552    -0.0110865    0.00460719
         2.25         0.075    -0.0456559      -9.02717   -0.00234711    -0.0112097    0.00467211
          2.3       0.07662    -0.0475429      -9.02787   -0.00237352     -0.011318    0.00473238
         2.35     0.0781425    -0.0494455      -9.02854    -0.0023945    -0.0114108    0.00478766
          2.4     0.0795618    -0.0513616      -9.02918   -0.00240984    -0.0114874    0.00483763
         2.45     0.0808719    -0.0532892      -9.02978   -0.00241933    -0.0115473    0.00488198
          2.5     0.0820673    -0.0552262      -9.03035   -0.00242276      -0.01159    0.00492036
         2.55     0.0831425    -0.0571707      -9.03087   -0.00241995    -0.0116148    0.00495247
          2.6     0.0840923    -0.0591206      -9.03136   -0.00241073    -0.0116212      0.004978
         2.65     0.0849114    -0.0610736       -9.0318   -0.00239493    -0.0116087    0.00499664
          2.7     0.0855951    -0.0630277       -9.0322   -0.00237241    -0.0115769     0.0050081
         2.75     0.0861385    -0.0649805      -9.03254   -0.00234304    -0.0115253    0.00501211
          2.8     0.0865372    -0.0669299      -9.03284   -0.00230669    -0.0114535    0.00500839
         2.85     0.0867868    -0.0688736      -9.03308   -0.00226326    -0.0113611    0.00499672
          2.9     0.0868834    -0.0708092      -9.03327   -0.00221267    -0.0112478    0.00497685
         2.95     0.0868232    -0.0727344      -9.03339   -0.00215483    -0.0111133    0.00494857
            3     0.0866025    -0.0746469      -9.03346    -0.0020897    -0.0109572    0.00491168
         3.05     0.0862182    -0.0765441      -9.03346   -0.00201723    -0.0107794    0.00486602
          3.1     0.0856672    -0.0784236      -9.03341    -0.0019374    -0.0105796    0.00481141
         3.15     0.0849468    -0.0802829      -9.03328   -0.00185018    -0.0103577    0.00474773
          3.2     0.0840545    -0.0821194      -9.03309    -0.0017556    -0.0101135    0.00467485
         3.25     0.0829881    -0.0839306      -9.03283   -0.00165368   -0.00984695    0.00459267
          3.3     0.0817459    -0.0857139      -9.03249   -0.00154444     -0.009558    0.00450113
         3.35     0.0803263    -0.0874666      -9.03209   -0.00142796   -0.00924663    0.00440017
          3.4     0.0787279    -0.0891859      -9.03161   -0.00130429   -0.00891291    0.00428977
         3.45       0.07695    -0.0908693      -9.03105   -0.00117354   -0.00855691    0.00416991
          3.5     0.0749919    -0.0925139      -9.03042   -0.00103579   -0.00817877    0.00404061
         3.55     0.0728533    -0.0941169      -9.02971  -0.000891187   -0.00777868    0.00390193
          3.6     0.0705342    -0.0956755      -9.02892  -0.000739853    -0.0073569    0.00375394
         3.65     0.0680351    -0.0971869      -9.02805  -0.000581945   -0.00691371    0.00359672
          3.7     0.0653567    -0.0986481       -9.0271  -0.000417635   -0.00644947    0.00343042
         3.75        0.0625     -0.100056      -9.02607  -0.000247109   -0.00596458    0.00325516
          3.8     0.0594664     -0.101409      -9.02495 -7.05682e-005    -0.0054595    0.00307114
         3.85     0.0562576     -0.102702      -9.02376   0.000111768   -0.00493476    0.00287856
          3.9     0.0528758     -0.103933      -9.02248   0.000299666   -0.00439091    0.00267764
         3.95     0.0493232       -0.1051      -9.02112   0.000492876   -0.00382858    0.00246864
            4     0.0456027     -0.106199      -9.01968   0.000691134   -0.00324845    0.00225184
         4.05     0.0417173     -0.107227      -9.01815    0.00089416   -0.00265122    0.00202753
          4.1     0.0376704     -0.108181      -9.01655    0.00110166   -0.00203767    0.00179606
         4.15     0.0334659     -0.109059      -9.01486    0.00131333    -0.0014086    0.00155776
          4.2     0.0291076     -0.109857      -9.01309    0.00152885  -0.000764874    0.00131302
         4.25     0.0246002     -0.110572      -9.01123    0.00174787  -0.000107379    0.00106221
          4.3     0.0199481     -0.111202       -9.0093    0.00197006   0.000562955   0.000805746
         4.35     0.0151566     -0.111744      -9.00729    0.00219506    0.00124516   0.000544065
          4.4     0.0102309     -0.112194      -9.00521    0.00242248    0.00193823   0.000277612
         4.45    0.00517676     -0.112551      -9.00304    0.00265196    0.00264114  6.85177e-006
          4.5  8.84344e-016      -0.11281      -9.00081     0.0028831    0.00335282  -0.000267735
         4.55   -0.00529309      -0.11297      -8.99849    0.00311549    0.00407217   -0.00054565
          4.6     -0.010696     -0.113028      -8.99611    0.00334872    0.00479808  -0.000826383
         4.65    -0.0162019     -0.112981      -8.99366    0.00358238    0.00552938   -0.00110941
          4.7    -0.0218038     -0.112826      -8.99114    0.00381603     0.0062649   -0.00139419
         4.75    -0.0274943     -0.112562      -8.98855    0.00404924    0.00700344   -0.00168017
          4.8    -0.0332659     -0.112185       -8.9859    0.00428156    0.00774377    -0.0019668
         4.85    -0.0391107     -0.111694      -8.98319    0.00451255    0.00848463    -0.0022535
          4.9    -0.0450208     -0.111085      -8.98043    0.00474175    0.00922477   -0.00253969
         4.95    -0.0509878     -0.110357      -8.97761     0.0049687    0.00996288   -0.00282479
            5    -0.0570034     -0.109509      -8.97473    0.00519294     0.0106977   -0.00310821
         5.05    -0.0630588     -0.108536      -8.97181      0.005414     0.0114278   -0.00338935
          5.1    -0.0691452     -0.107439      -8.96884    0.00563141     0.0121519   -0.00366762
         5.15    -0.0752537     -0.106215      -8.96582     0.0058447     0.0128687   -0.00394242
          5.2    -0.0813751     -0.104862      -8.96277     0.0060534     0.0135768   -0.00421315
         5.25       -0.0875      -0.10338      -8.95968    0.00625702     0.0142749   -0.00447922
          5.3    -0.0936191     -0.101766      -8.95656    0.00645511     0.0149615   -0.00474006
         5.35    -0.0997227     -0.100019      -8.95341    0.00664718     0.0156354   -0.00499507
          5.4     -0.105801    -0.0981386      -8.95024    0.00683277     0.0162952   -0.00524371
         5.45     -0.111845    -0.0961236      -8.94705    0.00701141     0.0169394    -0.0054854
          5.5     -0.117844     -0.093973      -8.94384    0.00718263     0.0175669   -0.00571962
         5.55     -0.123789    -0.0916864      -8.94062    0.00734598     0.0181763   -0.00594584
          5.6      -0.12967    -0.0892633      -8.93739      0.007501     0.0187661   -0.00616355
         5.65     -0.135476    -0.0867033      -8.93416    0.00764723     0.0193353   -0.00637228
          5.7     -0.141198    -0.0840065      -8.93093    0.00778424     0.0198824   -0.00657155
         5.75     -0.146825    -0.0811729       -8.9277     0.0079116     0.0204062   -0.00676094
          5.8     -0.152349    -0.0782027      -8.92449    0.00802886     0.0209054   -0.00694003
         5.85     -0.157758    -0.0750965      -8.92129    0.00813563     0.0213789   -0.00710844
          5.9     -0.163044     -0.071855      -8.91811    0.00823148     0.0218255    -0.0072658
         5.95     -0.168196    -0.0684789      -8.91495    0.00831602      0.022244   -0.00741179
            6     -0.173205    -0.0649695      -8.91183    0.00838887     0.0226332   -0.00754611
         6.05     -0.178061     -0.061328      -8.90874    0.00844966     0.0229921   -0.00766849
          6.1     -0.182755    -0.0575559      -8.90569    0.00849801     0.0233196   -0.00777869
         6.15     -0.187277     -0.053655      -8.90268    0.00853359     0.0236146   -0.00787652
          6.2     -0.191618    -0.0496273      -8.89973    0.00855607     0.0238762   -0.00796181
         6.25     -0.195769     -0.045475      -8.89683    0.00856512     0.0241034   -0.00803441
          6.3     -0.199722    -0.0412005      -8.89399    0.00856045     0.0242953   -0.00809423
         6.35     -0.203467    -0.0368065      -8.89122    0.00854178      0.024451    -0.0081412
          6.4     -0.206996    -0.0322959      -8.88851    0.00850884     0.0245698   -0.00817529
         6.45     -0.210302    -0.0276719      -8.88588    0.00846138     0.0246507   -0.00819648
          6.5     -0.213375    -0.0229378      -8.88333    0.00839919     0.0246931   -0.00820483
         6.55     -0.216209    -0.0180973      -8.88087    0.00832206     0.0246964   -0.00820038
          6.6     -0.218795    -0.0131543       -8.8785    0.00822979     0.0246599   -0.00818325
         6.65     -0.221127   -0.00811294      -8.87622    0.00812224     0.0245831   -0.00815356
          6.7     -0.223197    -0.0029775      -8.87404    0.00799926     0.0244655   -0.00811147
         6.75        -0.225    0.00224737      -8.87197    0.00786074     0.0243066   -0.00805717
          6.8     -0.226529    0.00755682      -8.87001    0.00770659     0.0241061   -0.00799088
         6.85     -0.227777     0.0129458      -8.86816    0.00753673     0.0238637   -0.00791285
          6.9      -0.22874     0.0184089      -8.86643    0.00735114     0.0235791   -0.00782334
         6.95     -0.229412     0.0239407      -8.86483     0.0071498     0.0232522   -0.00772266
            7     -0.229788     0.0295354      -8.86335    0.00693272     0.0228829    -0.0076111
         7.05     -0.229865     0.0351869      -8.86201    0.00669995      0.022471   -0.00748903
          7.1     -0.229637     0.0408891       -8.8608    0.00645155     0.0220168   -0.00735678
         7.15     -0.229101     0.0466356      -8.85974    0.00618762     0.0215202   -0.00721474
          7.2     -0.228254     0.0524196      -8.85882    0.00590829     0.0209814   -0.00706329
         7.25     -0.227092     0.0582343      -8.85805    0.00561372     0.0204007   -0.00690283
          7.3     -0.225615     0.0640728      -8.85743    0.00530409     0.0197784   -0.00673379
         7.35     -0.223819     0.0699278      -8.85697    0.00497962     0.0191149   -0.00655658
          7.4     -0.221703     0.0757919      -8.85666    0.00464056     0.0184107   -0.00637164
         7.45     -0.219265     0.0816576      -8.85652    0.00428719     0.0176662   -0.00617942
          7.5     -0.216506      0.087517      -8.85655    0.00391981     0.0168821   -0.00598035
         7.55     -0.213425     0.0933624      -8.85675    0.00353877     0.0160591   -0.00577488
          7.6     -0.210023     0.0991857      -8.85711    0.00314443     0.0151978   -0.00556348
         7.65     -0.206299      0.104979      -8.85765     0.0027372     0.0142993   -0.00534659
          7.7     -0.202256      0.110733      -8.85837    0.00231751     0.0133643   -0.00512467
         7.75     -0.197895      0.116441      -8.85927    0.00188582     0.0123938   -0.00489817
          7.8     -0.193218      0.122093      -8.86035    0.00144262     0.0113888   -0.00466753
         7.85     -0.188227      0.127682      -8.86161   0.000988429     0.0103506    -0.0044332
          7.9     -0.182927      0.133198      -8.86305   0.000523808    0.00928014   -0.00419561
         7.95      -0.17732      0.138632      -8.86468  4.93322e-005     0.0081788    -0.0039552
            8      -0.17141      0.143977      -8.86649  -0.000434389    0.00704787   -0.00371238
         8.05     -0.165202      0.149223      -8.86849  -0.000926718    0.00588871   -0.00346756
          8.1     -0.158702      0.154361      -8.87068   -0.00142699    0.00470277   -0.00322114
         8.15     -0.151914      0.159383      -8.87306   -0.00193452    0.00349154    -0.0029735
          8.2     -0.144845       0.16428      -8.87563   -0.00244859     0.0022566   -0.00272501
         8.25       -0.1375      0.169043      -8.87838   -0.00296846   0.000999561   -0.00247602
          8.3     -0.129887      0.173664      -8.88132   -0.00349337  -0.000277904   -0.00222688
         8.35     -0.122013      0.178133      -8.88445   -0.00402252   -0.00157406    -0.0019779
          8.4     -0.113886      0.182443      -8.88777   -0.00455511   -0.00288712   -0.00172937
         8.45     -0.105514      0.186584      -8.89127    -0.0050903   -0.00421524   -0.00148158
          8.5    -0.0969057      0.190549      -8.89495   -0.00562726   -0.00555654   -0.00123479
         8.55    -0.0880698      0.194329      -8.89882   -0.00616511   -0.00690908  -0.000989237
          8.6     -0.079016      0.197916      -8.90286   -0.00670296   -0.00827088  -0.000745133
         8.65    -0.0697541      0.201302      -8.90709   -0.00723992   -0.00963992  -0.000502675
          8.7    -0.0602944       0.20448      -8.91148   -0.00777507    -0.0110141  -0.000262035
         8.75    -0.0506474       0.20744      -8.91605   -0.00830747    -0.0123914 -2.33643e-005
          8.8    -0.0408241      0.210177       -8.9208    -0.0088362    -0.0137696   0.000213206
         8.85    -0.0308359      0.212683       -8.9257   -0.00936029    -0.0151465   0.000447568
          8.9    -0.0206944      0.214951      -8.93077   -0.00987878      -0.01652   0.000679631
         8.95    -0.0104117      0.216975        -8.936    -0.0103907    -0.0178878   0.000909325
            9  -1.6722e-015      0.218747      -8.94138    -0.0108951    -0.0192477     0.0011366
         9.05      0.010528      0.220262      -8.94691     -0.011391    -0.0205973    0.00136141
          9.1     0.0211595      0.221513      -8.95259    -0.0118774    -0.0219345    0.00158374
         9.15     0.0318812      0.222496      -8.95841    -0.0123534     -0.023257    0.00180358
          9.2     0.0426798      0.223205      -8.96437    -0.0128179    -0.0245623    0.00202092
         9.25     0.0535415      0.223635      -8.97045      -0.01327    -0.0258483    0.00223578
          9.3     0.0644526      0.223781      -8.97666    -0.0137087    -0.0271125    0.00244817
         9.35      0.075399      0.223639      -8.98299    -0.0141331    -0.0283528    0.00265811
          9.4     0.0863664      0.223206      -8.98944    -0.0145422    -0.0295668    0.00286561
         9.45     0.0973404      0.222478      -8.99599    -0.0149351    -0.0307522     0.0030707
          9.5      0.108306      0.221451      -9.00264    -0.0153109    -0.0319068    0.00327338
         9.55       0.11925      0.220124      -9.00938    -0.0156686    -0.0330283    0.00347368
          9.6      0.130156      0.218493      -9.01621    -0.0160074    -0.0341146    0.00367159
         9.65      0.141009      0.216558      -9.02312    -0.0163263    -0.0351633     0.0038671
          9.7      0.151796      0.214316       -9.0301    -0.0166246    -0.0361724    0.00406017
         9.75        0.1625      0.211767      -9.03715    -0.0169014    -0.0371398    0.00425076
          9.8      0.173107       0.20891      -9.04425     -0.017156    -0.0380633    0.00443881
         9.85      0.183602      0.205745       -9.0514    -0.0173875    -0.0389409    0.00462424
          9.9      0.193969      0.202273       -9.0586    -0.0175953    -0.0397707    0.00480694
         9.95      0.204194      0.198493      -9.06582    -0.0177785    -0.0405507    0.00498679
           10      0.214263      0.194408      -9.07307    -0.0179367     -0.041279    0.00516366
        10.05      0.224159      0.190019      -9.08034     -0.018069    -0.0419539    0.00533738
