hotint output data
notes: time (s), wave elevation (m), surge (m), heave (m), pitch (rads), flap 1 pitch (rads), flap 2 pitch (rads)
amplitude: -1m, period: 6.5s
            0            -0 -4.51784e-006      -9.00001 -7.62911e-007 -1.45315e-005 -3.27535e-006
         0.05  8.05223e-005 -2.52034e-005      -9.00003 -3.95423e-006 -7.09571e-005 -1.55979e-005
          0.1   0.000321713 -7.39953e-005      -9.00007 -1.07236e-005  -0.000178816 -3.80445e-005
         0.15   0.000722445  -0.000159717      -9.00013 -2.15033e-005  -0.000331703 -6.80217e-005
          0.2    0.00128084  -0.000289695      -9.00021 -3.66053e-005  -0.000523517  -0.000103382
         0.25     0.0019943  -0.000469903      -9.00031 -5.62309e-005  -0.000748414  -0.000142352
          0.3    0.00285946   -0.00070505      -9.00043 -8.04783e-005   -0.00100082  -0.000183485
         0.35    0.00387226  -0.000998685      -9.00057  -0.000109351   -0.00127542  -0.000225611
          0.4    0.00502793    -0.0013533      -9.00072  -0.000142765   -0.00156713  -0.000267791
         0.45    0.00632102   -0.00177037       -9.0009  -0.000180553   -0.00187108  -0.000309275
          0.5    0.00774539   -0.00225048      -9.00108  -0.000222478   -0.00218266  -0.000349491
         0.55    0.00929426   -0.00279329      -9.00129  -0.000268232   -0.00249757  -0.000388017
          0.6     0.0109603   -0.00339768       -9.0015  -0.000317449   -0.00281177  -0.000424559
         0.65     0.0127353   -0.00406178      -9.00173   -0.00036971   -0.00312152   -0.00045893
          0.7      0.014611   -0.00478305      -9.00197  -0.000424551   -0.00342337  -0.000491035
         0.75     0.0165781   -0.00555831      -9.00222  -0.000481467   -0.00371419  -0.000520859
          0.8      0.018627   -0.00638384      -9.00247  -0.000539923   -0.00399117  -0.000548453
         0.85     0.0207476   -0.00725543      -9.00273  -0.000599356   -0.00425179  -0.000573919
          0.9     0.0229295   -0.00816842        -9.003  -0.000659186   -0.00449382  -0.000597399
         0.95     0.0251616   -0.00911783      -9.00327  -0.000718819   -0.00471532  -0.000619067
            1     0.0274328    -0.0100983      -9.00354  -0.000777652   -0.00491462  -0.000639118
         1.05     0.0297314    -0.0111044      -9.00381   -0.00083508   -0.00509029  -0.000657765
          1.1     0.0320455    -0.0121302      -9.00408  -0.000890503   -0.00524115  -0.000675232
         1.15      0.034363    -0.0131699      -9.00435  -0.000943324   -0.00536621  -0.000691745
          1.2     0.0366717    -0.0142175      -9.00461  -0.000992961   -0.00546471  -0.000707535
         1.25      0.038959     -0.015267      -9.00486   -0.00103885   -0.00553605  -0.000722828
          1.3     0.0412124    -0.0163124       -9.0051   -0.00108043   -0.00557976  -0.000737846
         1.35     0.0434194    -0.0173476      -9.00532   -0.00111719   -0.00559553  -0.000752805
          1.4     0.0455673    -0.0183667      -9.00554   -0.00114861   -0.00558316  -0.000767914
         1.45     0.0476434    -0.0193639      -9.00574   -0.00117422   -0.00554253  -0.000783373
          1.5     0.0496354    -0.0203336      -9.00592   -0.00119358   -0.00547362  -0.000799375
         1.55     0.0515309    -0.0212701      -9.00607   -0.00120626   -0.00537644  -0.000816106
          1.6     0.0533178     -0.022168      -9.00621   -0.00121189   -0.00525109  -0.000833746
         1.65     0.0549839    -0.0230222      -9.00633   -0.00121009   -0.00509768  -0.000852468
          1.7     0.0565178    -0.0238277      -9.00641   -0.00120057   -0.00491638  -0.000872443
         1.75      0.057908    -0.0245795      -9.00647   -0.00118303   -0.00470737  -0.000893838
          1.8     0.0591436    -0.0252731       -9.0065   -0.00115722   -0.00447087  -0.000916821
         1.85     0.0602139    -0.0259041       -9.0065   -0.00112292   -0.00420712  -0.000941557
          1.9     0.0611088    -0.0264682      -9.00646   -0.00107997   -0.00391638  -0.000968213
         1.95     0.0618187    -0.0269614      -9.00639   -0.00102821   -0.00359896  -0.000996957
            2     0.0623344      -0.02738      -9.00629  -0.000967545   -0.00325519   -0.00102796
         2.05     0.0626475    -0.0277204      -9.00614  -0.000897899   -0.00288544    -0.0010614
          2.1     0.0627499    -0.0279791      -9.00596  -0.000819243   -0.00249014   -0.00109744
         2.15     0.0626344     -0.028153      -9.00573   -0.00073158   -0.00206974   -0.00113626
          2.2     0.0622943    -0.0282392      -9.00547  -0.000634952   -0.00162478   -0.00117803
         2.25     0.0617238    -0.0282348      -9.00516  -0.000529438   -0.00115585   -0.00122293
          2.3     0.0609176    -0.0281374       -9.0048  -0.000415152    -0.0006636   -0.00127113
         2.35     0.0598714    -0.0279445      -9.00441  -0.000292248  -0.000148749   -0.00132278
          2.4     0.0585815    -0.0276541      -9.00396  -0.000160914   0.000387898   -0.00137804
         2.45     0.0570451    -0.0272641      -9.00347 -2.13756e-005   0.000945448   -0.00143706
          2.5     0.0552602    -0.0267729      -9.00294   0.000126105    0.00152293   -0.00149997
         2.55     0.0532257     -0.026179      -9.00236   0.000281231    0.00211929   -0.00156688
          2.6     0.0509414    -0.0254811      -9.00173   0.000443668    0.00273339   -0.00163791
         2.65     0.0484078    -0.0246782      -9.00105   0.000613048    0.00336402   -0.00171312
          2.7     0.0456264    -0.0237695      -9.00033    0.00078897    0.00400988   -0.00179258
         2.75     0.0425996    -0.0227543      -8.99956   0.000970998    0.00466962   -0.00187632
          2.8     0.0393308    -0.0216323      -8.99875    0.00115866     0.0053418   -0.00196433
         2.85      0.035824    -0.0204033      -8.99789    0.00135147    0.00602491   -0.00205662
          2.9     0.0320844    -0.0190675      -8.99698    0.00154889    0.00671739   -0.00215311
         2.95      0.028118    -0.0176251      -8.99604    0.00175037    0.00741761   -0.00225373
            3     0.0239316    -0.0160768      -8.99505    0.00195533    0.00812389   -0.00235838
         3.05     0.0195329    -0.0144232      -8.99402    0.00216315    0.00883449   -0.00246691
          3.1     0.0149305    -0.0126654      -8.99295    0.00237321    0.00954764   -0.00257915
         3.15      0.010134    -0.0108046      -8.99184    0.00258485     0.0102615    -0.0026949
          3.2    0.00515343   -0.00884217      -8.99069    0.00279741     0.0109742   -0.00281395
         3.25  3.98144e-016   -0.00677978      -8.98952    0.00301018     0.0116839   -0.00293602
          3.3   -0.00531447   -0.00461925      -8.98831    0.00322247     0.0123886   -0.00306085
         3.35    -0.0107774    -0.0023626      -8.98707    0.00343356     0.0130862   -0.00318813
          3.4    -0.0163754 -1.20381e-005       -8.9858     0.0036427     0.0137749   -0.00331753
         3.45    -0.0220946    0.00243002      -8.98451    0.00384917     0.0144526   -0.00344869
          3.5    -0.0279202    0.00496098       -8.9832    0.00405221     0.0151172   -0.00358124
         3.55    -0.0338369     0.0075781      -8.98187    0.00425106     0.0157667   -0.00371478
          3.6    -0.0398289     0.0102784      -8.98052    0.00444496     0.0163989    -0.0038489
         3.65    -0.0458799     0.0130589      -8.97916    0.00463317     0.0170118   -0.00398315
          3.7    -0.0519728     0.0159161      -8.97779     0.0048149     0.0176032   -0.00411709
         3.75    -0.0580904     0.0188468      -8.97642    0.00498942      0.018171   -0.00425024
          3.8    -0.0642149     0.0218474      -8.97504    0.00515596     0.0187131   -0.00438212
         3.85    -0.0703283      0.024914      -8.97366    0.00531379     0.0192275   -0.00451221
          3.9    -0.0764121     0.0280428      -8.97229    0.00546217     0.0197121      -0.00464
         3.95    -0.0824477     0.0312299      -8.97092    0.00560037     0.0201647   -0.00476495
            4    -0.0884164     0.0344709      -8.96957     0.0057277     0.0205836   -0.00488651
         4.05     -0.094299     0.0377618      -8.96824    0.00584347     0.0209666   -0.00500412
          4.1     -0.100077     0.0410979      -8.96692      0.005947     0.0213119    -0.0051172
         4.15      -0.10573     0.0444749      -8.96563    0.00603765     0.0216177   -0.00522518
          4.2     -0.111241      0.047888      -8.96436    0.00611481     0.0218823   -0.00532745
         4.25     -0.116589     0.0513325      -8.96313    0.00617786     0.0221038   -0.00542342
          4.3     -0.121757     0.0548036      -8.96194    0.00622625     0.0222808   -0.00551247
         4.35     -0.126725     0.0582963      -8.96078    0.00625946     0.0224118   -0.00559401
          4.4     -0.131476     0.0618057      -8.95967    0.00627697     0.0224953   -0.00566741
         4.45     -0.135991     0.0653267      -8.95861    0.00627833       0.02253   -0.00573207
          4.5     -0.140252     0.0688542       -8.9576    0.00626311     0.0225148   -0.00578738
         4.55     -0.144244     0.0723829      -8.95665    0.00623094     0.0224485   -0.00583274
          4.6     -0.147948     0.0759078      -8.95575    0.00618148     0.0223303   -0.00586757
         4.65     -0.151348     0.0794235      -8.95493    0.00611443     0.0221592   -0.00589127
          4.7      -0.15443     0.0829249      -8.95416    0.00602954     0.0219347   -0.00590329
         4.75     -0.157179     0.0864066      -8.95347    0.00592662      0.021656   -0.00590308
          4.8      -0.15958     0.0898635      -8.95286    0.00580552     0.0213227   -0.00589011
         4.85     -0.161619     0.0932902      -8.95232    0.00566613     0.0209346   -0.00586387
          4.9     -0.163286     0.0966817      -8.95186    0.00550842     0.0204914    -0.0058239
         4.95     -0.164567      0.100033      -8.95149    0.00533238     0.0199932   -0.00576973
            5     -0.165451      0.103338      -8.95121    0.00513808       0.01944   -0.00570095
         5.05     -0.165931      0.106592      -8.95101    0.00492562     0.0188321   -0.00561719
          5.1     -0.165995      0.109791      -8.95091    0.00469519     0.0181698   -0.00551808
         5.15     -0.165637      0.112929       -8.9509    0.00444701     0.0174539   -0.00540334
          5.2      -0.16485      0.116001        -8.951    0.00418135      0.016685   -0.00527269
         5.25     -0.163628      0.119002      -8.95119    0.00389855     0.0158639   -0.00512592
          5.3     -0.161967      0.121928      -8.95148      0.003599     0.0149917   -0.00496286
         5.35     -0.159863      0.124775      -8.95187    0.00328316     0.0140696    -0.0047834
          5.4     -0.157314      0.127536      -8.95237    0.00295151     0.0130989   -0.00458748
         5.45      -0.15432      0.130208      -8.95298    0.00260463     0.0120812   -0.00437509
          5.5      -0.15088      0.132788      -8.95369    0.00224312      0.011018   -0.00414629
         5.55     -0.146997      0.135269      -8.95451    0.00186763    0.00991126   -0.00390119
          5.6     -0.142672      0.137649      -8.95544    0.00147889    0.00876286   -0.00363999
         5.65     -0.137911      0.139923      -8.95647    0.00107766    0.00757492   -0.00336292
          5.7     -0.132717      0.142087      -8.95761   0.000664743    0.00634969   -0.00307032
         5.75     -0.127099      0.144139      -8.95886   0.000241004    0.00508955   -0.00276255
          5.8     -0.121062      0.146074      -8.96021  -0.000192657    0.00379702    -0.0024401
         5.85     -0.114618      0.147888      -8.96167  -0.000635295    0.00247475   -0.00210348
          5.9     -0.107776       0.14958      -8.96324   -0.00108592    0.00112551    -0.0017533
         5.95     -0.100547      0.151146      -8.96491   -0.00154352   -0.00024782   -0.00139024
            6    -0.0929446      0.152582      -8.96668   -0.00200703   -0.00164224   -0.00101505
         6.05    -0.0849826      0.153887      -8.96854   -0.00247536   -0.00305466  -0.000628557
          6.1     -0.076676      0.155058      -8.97051   -0.00294738   -0.00448187  -0.000231644
         6.15    -0.0680411      0.156093      -8.97257   -0.00342196   -0.00592059   0.000174725
          6.2    -0.0590954       0.15699      -8.97472   -0.00389792   -0.00736745   0.000589521
         6.25    -0.0498574      0.157746      -8.97696   -0.00437406   -0.00881901    0.00101165
          6.3    -0.0403466      0.158361      -8.97928   -0.00484918    -0.0102717    0.00143997
         6.35    -0.0305835      0.158833      -8.98168   -0.00532205    -0.0117221    0.00187325
          6.4    -0.0205896       0.15916      -8.98417   -0.00579144    -0.0131664    0.00231025
         6.45    -0.0103874      0.159342      -8.98672   -0.00625609    -0.0146011    0.00274964
          6.5 -3.32453e-015      0.159377      -8.98935   -0.00671477    -0.0160224    0.00319007
         6.55     0.0105484      0.159266      -8.99204   -0.00716622    -0.0174266    0.00363014
          6.6     0.0212331      0.159008      -8.99479   -0.00760919      -0.01881    0.00406842
         6.65     0.0320284      0.158602      -8.99759   -0.00804245    -0.0201687    0.00450344
          6.7     0.0429083       0.15805      -9.00045   -0.00846475    -0.0214992    0.00493373
         6.75      0.053846       0.15735      -9.00334   -0.00887487    -0.0227976    0.00535777
          6.8     0.0648144      0.156505      -9.00628   -0.00927161    -0.0240603    0.00577406
         6.85     0.0757856      0.155514      -9.00925   -0.00965378    -0.0252835    0.00618107
          6.9     0.0867318      0.154379      -9.01225    -0.0100202    -0.0264637    0.00657729
         6.95     0.0976246      0.153101      -9.01527    -0.0103698    -0.0275973    0.00696121
            7      0.108435      0.151681       -9.0183    -0.0107013    -0.0286808    0.00733132
         7.05      0.119136      0.150122      -9.02134    -0.0110138    -0.0297108    0.00768616
          7.1      0.129696      0.148425      -9.02438    -0.0113061    -0.0306839    0.00802428
         7.15      0.140089      0.146592      -9.02742    -0.0115773    -0.0315968    0.00834425
          7.2      0.150284      0.144627      -9.03045    -0.0118264    -0.0324465    0.00864471
         7.25      0.160255      0.142532      -9.03345    -0.0120525      -0.03323    0.00892433
          7.3      0.169971       0.14031      -9.03644    -0.0122546    -0.0339442    0.00918183
         7.35      0.179406      0.137964      -9.03939    -0.0124319    -0.0345865      0.009416
          7.4      0.188531      0.135498      -9.04231    -0.0125836    -0.0351541    0.00962567
         7.45       0.19732      0.132915      -9.04518     -0.012709    -0.0356447    0.00980977
          7.5      0.205746      0.130221      -9.04799    -0.0128075    -0.0360559    0.00996729
         7.55      0.213783      0.127417      -9.05075    -0.0128783    -0.0363856     0.0100973
          7.6      0.221405      0.124511      -9.05345    -0.0129208    -0.0366317     0.0101989
         7.65      0.228589      0.121505      -9.05607    -0.0129347    -0.0367925     0.0102715
          7.7       0.23531      0.118405      -9.05861    -0.0129193    -0.0368663     0.0103142
         7.75      0.241546      0.115217      -9.06107    -0.0128743    -0.0368517     0.0103267
          7.8      0.247275      0.111945      -9.06344    -0.0127994    -0.0367476     0.0103083
         7.85      0.252476      0.108596       -9.0657    -0.0126943    -0.0365528     0.0102587
          7.9      0.257129      0.105175      -9.06787    -0.0125588    -0.0362666     0.0101777
         7.95      0.261217      0.101688      -9.06992    -0.0123928    -0.0358883     0.0100652
            8      0.264722     0.0981425      -9.07186    -0.0121961    -0.0354177    0.00992101
         8.05      0.267628     0.0945437      -9.07368    -0.0119687    -0.0348545     0.0097453
          8.1      0.269921     0.0908988      -9.07536    -0.0117108    -0.0341988    0.00953825
         8.15      0.271587     0.0872145      -9.07692    -0.0114224    -0.0334509    0.00930016
          8.2      0.272615      0.083498      -9.07834    -0.0111037    -0.0326113    0.00903144
         8.25      0.272995     0.0797564      -9.07962     -0.010755    -0.0316807    0.00873264
          8.3      0.272718     0.0759972      -9.08075    -0.0103766    -0.0306602    0.00840439
         8.35      0.271776     0.0722278      -9.08172   -0.00996886    -0.0295508    0.00804748
          8.4      0.270165     0.0684557      -9.08255    -0.0095323    -0.0283541    0.00766277
         8.45      0.267881     0.0646889      -9.08321    -0.0090674    -0.0270716    0.00725126
          8.5      0.264921     0.0609351      -9.08371   -0.00857478    -0.0257053    0.00681406
         8.55      0.261286     0.0572022      -9.08405   -0.00805507    -0.0242572    0.00635237
          8.6      0.256976     0.0534984      -9.08422   -0.00750901    -0.0227296    0.00586751
         8.65      0.251994     0.0498316      -9.08422   -0.00693736     -0.021125     0.0053609
          8.7      0.246346       0.04621      -9.08404   -0.00634099    -0.0194462    0.00483405
         8.75      0.240037     0.0426419      -9.08369   -0.00572079     -0.017696    0.00428858
          8.8      0.233076     0.0391353      -9.08317   -0.00507774    -0.0158777    0.00372617
         8.85      0.225473     0.0356986      -9.08247   -0.00441286    -0.0139945     0.0031486
          8.9       0.21724     0.0323399      -9.08159   -0.00372725    -0.0120499    0.00255772
         8.95      0.208389     0.0290673      -9.08054   -0.00302203    -0.0100477    0.00195544
            9      0.198937     0.0258891      -9.07931   -0.00229843   -0.00799177    0.00134375
         9.05      0.188899     0.0228132       -9.0779   -0.00155768    -0.0058861   0.000724675
          9.1      0.178295     0.0198478      -9.07632  -0.000801105   -0.00373495   0.000100282
         9.15      0.167144     0.0170006      -9.07457 -3.00551e-005   -0.00154267  -0.000527321
          9.2      0.155468     0.0142795      -9.07264   0.000754057   0.000686204     -0.001156
         9.25       0.14329     0.0116921      -9.07055    0.00154977    0.00294702   -0.00178362
          9.3      0.130634    0.00924599      -9.06829    0.00235559    0.00523499   -0.00240801
         9.35      0.117528    0.00694843      -9.06586    0.00316995     0.0075452   -0.00302704
          9.4      0.103998    0.00480657      -9.06328    0.00399128    0.00987262   -0.00363856
         9.45     0.0900729    0.00282738      -9.06054    0.00481792     0.0122121   -0.00424047
          9.5     0.0757833    0.00101754      -9.05765    0.00564821     0.0145585   -0.00483068
         9.55     0.0611603  -0.000616465      -9.05461    0.00648043     0.0169065   -0.00540714
          9.6     0.0462365   -0.00206845      -9.05143    0.00731285     0.0192507   -0.00596787
         9.65     0.0310453   -0.00333249      -9.04812    0.00814368     0.0215856   -0.00651096
          9.7     0.0156213   -0.00440298      -9.04467    0.00897112     0.0239059   -0.00703454
         9.75 -1.03523e-015   -0.00527464       -9.0411    0.00979332      0.026206   -0.00753687
          9.8    -0.0157824   -0.00594253      -9.03742     0.0106084     0.0284803   -0.00801625
         9.85    -0.0316887   -0.00640208      -9.03362     0.0114146     0.0307233   -0.00847108
          9.9    -0.0476814    -0.0066491      -9.02972     0.0122098     0.0329295   -0.00889988
         9.95     -0.063722   -0.00667979      -9.02573     0.0129923     0.0350933   -0.00930125
           10    -0.0797719   -0.00649079      -9.02165     0.0137601     0.0372092   -0.00967389
        10.05    -0.0957918   -0.00607914      -9.01748     0.0145112     0.0392718    -0.0100166
