hotint output data
notes: time (s), wave elevation (m), surge (m), heave (m), pitch (rads), flap 1 pitch (rads), flap 2 pitch (rads)
amplitude: -1m, period: 14s
            0            -0 -2.51563e-006      -9.00001 -2.81536e-007 -2.98256e-006  3.97243e-006
         0.05  3.73968e-005 -1.24756e-005      -9.00003 -1.41436e-006 -1.49443e-005  1.94272e-005
          0.1   0.000149549 -3.21647e-005      -9.00009 -3.70382e-006 -3.89252e-005  4.90626e-005
         0.15   0.000336345 -6.14684e-005      -9.00017 -7.19088e-006 -7.49044e-005   9.1254e-005
          0.2   0.000597595  -0.000100535      -9.00029 -1.19284e-005   -0.00012272   0.000144474
         0.25   0.000933037  -0.000149735      -9.00043 -1.79784e-005  -0.000182086   0.000207283
          0.3    0.00134233  -0.000209631      -9.00061 -2.54094e-005  -0.000252617   0.000278332
         0.35    0.00182507  -0.000280944      -9.00081 -3.42941e-005  -0.000333851   0.000356362
          0.4    0.00238076  -0.000364526      -9.00105 -4.47078e-005  -0.000425252   0.000440192
         0.45    0.00300884   -0.00046134      -9.00132  -5.6726e-005  -0.000526232   0.000528728
          0.5    0.00370868  -0.000572434      -9.00163 -7.04229e-005  -0.000636173   0.000620962
         0.55    0.00447957  -0.000698924      -9.00197 -8.58706e-005  -0.000754439   0.000715977
          0.6    0.00532074  -0.000841976      -9.00234  -0.000103137   -0.00088039   0.000812948
         0.65    0.00623132   -0.00100279      -9.00275  -0.000122285   -0.00101339   0.000911141
          0.7     0.0072104   -0.00118259       -9.0032  -0.000143372   -0.00115284    0.00100991
         0.75    0.00825698   -0.00138261      -9.00368  -0.000166449   -0.00129813    0.00110871
          0.8       0.00937   -0.00160406       -9.0042  -0.000191559   -0.00144873    0.00120706
         0.85     0.0105483   -0.00184818      -9.00476  -0.000218737   -0.00160413     0.0013046
          0.9     0.0117908   -0.00211616      -9.00535  -0.000248012   -0.00176386    0.00140103
         0.95      0.013096   -0.00240917      -9.00598  -0.000279401    -0.0019275     0.0014961
            1     0.0144628   -0.00272835      -9.00665  -0.000312916   -0.00209468    0.00158968
         1.05     0.0158897    -0.0030748      -9.00735  -0.000348556   -0.00226507    0.00168165
          1.1     0.0173752   -0.00344959      -9.00809  -0.000386316    -0.0024384    0.00177197
         1.15     0.0189178   -0.00385376      -9.00888  -0.000426179   -0.00261442    0.00186066
          1.2      0.020516   -0.00428827      -9.00969   -0.00046812   -0.00279293    0.00194774
         1.25      0.022168   -0.00475407      -9.01055  -0.000512107   -0.00297377    0.00203329
          1.3     0.0238722   -0.00525206      -9.01145  -0.000558097   -0.00315679    0.00211741
         1.35     0.0256268    -0.0057831      -9.01238  -0.000606042   -0.00334188    0.00220021
          1.4       0.02743     -0.006348      -9.01335  -0.000655886   -0.00352895    0.00228182
         1.45     0.0292799   -0.00694755      -9.01436  -0.000707563    -0.0037179    0.00236234
          1.5     0.0311745   -0.00758248       -9.0154  -0.000761004   -0.00390867    0.00244191
         1.55     0.0331119   -0.00825352      -9.01648  -0.000816131   -0.00410117    0.00252064
          1.6     0.0350901   -0.00896134       -9.0176  -0.000872861   -0.00429534    0.00259863
         1.65     0.0371069   -0.00970659      -9.01875  -0.000931105   -0.00449108    0.00267597
          1.7     0.0391602    -0.0104899      -9.01993  -0.000990767    -0.0046883    0.00275271
         1.75     0.0412479    -0.0113119      -9.02116   -0.00105175   -0.00488689     0.0028289
          1.8     0.0433677    -0.0121731      -9.02241   -0.00111394   -0.00508674    0.00290456
         1.85     0.0455173    -0.0130742       -9.0237   -0.00117725   -0.00528769    0.00297969
          1.9     0.0476945    -0.0140156      -9.02502   -0.00124154   -0.00548959    0.00305427
         1.95     0.0498969     -0.014998      -9.02637   -0.00130672   -0.00569226    0.00312826
            2     0.0521221    -0.0160218      -9.02776   -0.00137265    -0.0058955    0.00320158
         2.05     0.0543677    -0.0170875      -9.02917   -0.00143921   -0.00609909    0.00327415
          2.1     0.0566312    -0.0181957      -9.03061   -0.00150628    -0.0063028    0.00334586
         2.15     0.0589101    -0.0193469      -9.03208   -0.00157374   -0.00650638     0.0034166
          2.2      0.061202    -0.0205415      -9.03358   -0.00164144   -0.00670955    0.00348623
         2.25     0.0635043    -0.0217801      -9.03511   -0.00170926   -0.00691205    0.00355462
          2.3     0.0658144     -0.023063      -9.03665   -0.00177707   -0.00711357     0.0036216
         2.35     0.0681297    -0.0243908      -9.03823   -0.00184472   -0.00731382    0.00368702
          2.4     0.0704476    -0.0257639      -9.03982   -0.00191209   -0.00751248     0.0037507
         2.45     0.0727655    -0.0271827      -9.04144   -0.00197903   -0.00770924    0.00381249
          2.5     0.0750807    -0.0286476      -9.04307    -0.0020454   -0.00790379     0.0038722
         2.55     0.0773906    -0.0301592      -9.04472   -0.00211107   -0.00809579    0.00392968
          2.6     0.0796924    -0.0317177      -9.04639    -0.0021759   -0.00828493    0.00398475
         2.65     0.0819835    -0.0333236      -9.04808   -0.00223975   -0.00847088    0.00403724
          2.7     0.0842611    -0.0349772      -9.04978   -0.00230247   -0.00865332    0.00408698
         2.75     0.0865226    -0.0366788      -9.05149   -0.00236394   -0.00883192     0.0041338
          2.8     0.0887653    -0.0384288      -9.05321   -0.00242401   -0.00900637    0.00417755
         2.85     0.0909863    -0.0402276      -9.05494   -0.00248255   -0.00917635    0.00421807
          2.9     0.0931831    -0.0420752      -9.05668   -0.00253942   -0.00934153    0.00425519
         2.95     0.0953528    -0.0439722      -9.05842   -0.00259448    -0.0095016    0.00428876
            3     0.0974928    -0.0459185      -9.06017   -0.00264761   -0.00965625    0.00431864
         3.05     0.0996003    -0.0479146      -9.06192   -0.00269868   -0.00980517    0.00434467
          3.1      0.101673    -0.0499604      -9.06367   -0.00274755   -0.00994805    0.00436673
         3.15      0.103707    -0.0520563      -9.06541    -0.0027941    -0.0100846    0.00438466
          3.2      0.105701    -0.0542022      -9.06715    -0.0028382    -0.0102145    0.00439835
         3.25      0.107652    -0.0563982      -9.06889   -0.00287973    -0.0103375    0.00440767
          3.3      0.109557    -0.0586444      -9.07062   -0.00291858    -0.0104532     0.0044125
         3.35      0.111414    -0.0609408      -9.07234   -0.00295463    -0.0105615    0.00441274
          3.4      0.113219    -0.0632873      -9.07404   -0.00298776     -0.010662    0.00440827
         3.45      0.114971    -0.0656837      -9.07573   -0.00301787    -0.0107544    0.00439902
          3.5      0.116667      -0.06813      -9.07741   -0.00304484    -0.0108385     0.0043849
         3.55      0.118304     -0.070626      -9.07906   -0.00306858    -0.0109141    0.00436584
          3.6      0.119879    -0.0731714       -9.0807   -0.00308898    -0.0109808    0.00434178
         3.65      0.121391    -0.0757658      -9.08231   -0.00310595    -0.0110385    0.00431267
          3.7      0.122837     -0.078409       -9.0839   -0.00311939     -0.011087    0.00427846
         3.75      0.124214    -0.0811005      -9.08546   -0.00312923     -0.011126    0.00423914
          3.8       0.12552    -0.0838399      -9.08699   -0.00313536    -0.0111553    0.00419469
         3.85      0.126753    -0.0866265      -9.08849   -0.00313772    -0.0111748    0.00414511
          3.9      0.127911    -0.0894598      -9.08996   -0.00313622    -0.0111843    0.00409039
         3.95      0.128991    -0.0923391      -9.09139    -0.0031308    -0.0111836    0.00403057
            4       0.12999    -0.0952637      -9.09278   -0.00312139    -0.0111726    0.00396567
         4.05      0.130908    -0.0982327      -9.09413   -0.00310793    -0.0111511    0.00389573
          4.1      0.131742     -0.101245      -9.09543   -0.00309035    -0.0111191     0.0038208
         4.15      0.132489       -0.1043      -9.09669    -0.0030686    -0.0110764    0.00374094
          4.2      0.133148     -0.107397      -9.09791   -0.00304265    -0.0110229    0.00365622
         4.25      0.133717     -0.110534      -9.09907   -0.00301243    -0.0109586    0.00356672
          4.3      0.134194     -0.113711      -9.10018   -0.00297792    -0.0108834    0.00347253
         4.35      0.134577     -0.116925      -9.10124   -0.00293908    -0.0107972    0.00337374
          4.4      0.134864     -0.120177      -9.10224   -0.00289589       -0.0107    0.00327045
         4.45      0.135054     -0.123463      -9.10318   -0.00284831    -0.0105918    0.00316277
          4.5      0.135145     -0.126783      -9.10406   -0.00279634    -0.0104725    0.00305084
         4.55      0.135136     -0.130136      -9.10488   -0.00273996    -0.0103421    0.00293476
          4.6      0.135025     -0.133519      -9.10563   -0.00267916    -0.0102006    0.00281469
         4.65       0.13481     -0.136931      -9.10631   -0.00261395    -0.0100481    0.00269077
          4.7       0.13449     -0.140369      -9.10693   -0.00254431   -0.00988452    0.00256314
         4.75      0.134065     -0.143833      -9.10747   -0.00247028   -0.00970997    0.00243196
          4.8      0.133532     -0.147321      -9.10794   -0.00239185   -0.00952448    0.00229741
         4.85       0.13289     -0.150829      -9.10833   -0.00230905   -0.00932812    0.00215965
          4.9      0.132139     -0.154356      -9.10864    -0.0022219   -0.00912097    0.00201887
         4.95      0.131278       -0.1579      -9.10888   -0.00213044   -0.00890313    0.00187525
            5      0.130305     -0.161459      -9.10903    -0.0020347   -0.00867469    0.00172898
         5.05       0.12922      -0.16503       -9.1091   -0.00193472   -0.00843578    0.00158027
          5.1      0.128022      -0.16861      -9.10908   -0.00183056   -0.00818654     0.0014293
         5.15       0.12671     -0.172198      -9.10898   -0.00172226   -0.00792711    0.00127629
          5.2      0.125284      -0.17579      -9.10878   -0.00160988   -0.00765765    0.00112145
         5.25      0.123744     -0.179385       -9.1085    -0.0014935   -0.00737833   0.000964977
          5.3      0.122088     -0.182979      -9.10812   -0.00137318   -0.00708935   0.000807088
         5.35      0.120316     -0.186569      -9.10765   -0.00124899   -0.00679089   0.000647992
          5.4      0.118429     -0.190154      -9.10708   -0.00112102   -0.00648316   0.000487899
         5.45      0.116426     -0.193729      -9.10642  -0.000989362   -0.00616639   0.000327015
          5.5      0.114306     -0.197292      -9.10565  -0.000854102    -0.0058408   0.000165546
         5.55      0.112071      -0.20084      -9.10479  -0.000715343   -0.00550663  3.69334e-006
          5.6       0.10972      -0.20437      -9.10383  -0.000573188   -0.00516414  -0.000158345
         5.65      0.107253     -0.207879      -9.10276   -0.00042775   -0.00481358  -0.000320377
          5.7       0.10467     -0.211363      -9.10159  -0.000279144   -0.00445522  -0.000482215
         5.75      0.101973      -0.21482      -9.10032  -0.000127492   -0.00408934  -0.000643678
          5.8     0.0991605     -0.218246      -9.09894  2.70778e-005   -0.00371623  -0.000804592
         5.85     0.0962341     -0.221638      -9.09745   0.000184433   -0.00333619  -0.000964791
          5.9     0.0931942     -0.224992      -9.09585   0.000344434   -0.00294952   -0.00112411
         5.95     0.0900414     -0.228306      -9.09415   0.000506937   -0.00255653   -0.00128241
            6     0.0867767     -0.231576      -9.09234   0.000671794   -0.00215755   -0.00143953
         6.05      0.083401     -0.234799      -9.09042   0.000838849   -0.00175291   -0.00159536
          6.1     0.0799151      -0.23797      -9.08838    0.00100794   -0.00134295   -0.00174975
         6.15     0.0763202     -0.241088      -9.08624    0.00117891  -0.000928015    -0.0019026
          6.2     0.0726175     -0.244148      -9.08399    0.00135158  -0.000508466    -0.0020538
         6.25     0.0688081     -0.247146      -9.08162    0.00152579  -8.4663e-005   -0.00220326
          6.3     0.0648936     -0.250081      -9.07914    0.00170134   0.000343023   -0.00235088
         6.35     0.0608752     -0.252947      -9.07656    0.00187806   0.000774218    -0.0024966
          6.4     0.0567545     -0.255742      -9.07386    0.00205576    0.00120854   -0.00264035
         6.45     0.0525332     -0.258463      -9.07105    0.00223425     0.0016456   -0.00278208
          6.5     0.0482129     -0.261105      -9.06812    0.00241334      0.002085   -0.00292174
         6.55     0.0437954     -0.263666      -9.06509    0.00259281    0.00252635    -0.0030593
          6.6     0.0392825     -0.266141      -9.06194    0.00277248    0.00296925   -0.00319473
         6.65     0.0346763     -0.268529      -9.05869    0.00295213     0.0034133   -0.00332803
          6.7     0.0299788     -0.270825      -9.05533    0.00313156    0.00385808   -0.00345918
         6.75      0.025192     -0.273026      -9.05185    0.00331055    0.00430319   -0.00358819
          6.8     0.0203182      -0.27513      -9.04827    0.00348889    0.00474822   -0.00371508
         6.85     0.0153598     -0.277132      -9.04458    0.00366637    0.00519275   -0.00383986
          6.9     0.0103189     -0.279029      -9.04079    0.00384277    0.00563637   -0.00396257
         6.95    0.00519815      -0.28082      -9.03689    0.00401786    0.00607865   -0.00408324
            7  1.79013e-015     -0.282499      -9.03288    0.00419144    0.00651919   -0.00420192
         7.05   -0.00527295     -0.284066      -9.02877    0.00436328    0.00695757   -0.00431865
          7.1     -0.010618     -0.285515      -9.02457    0.00453315    0.00739336   -0.00443348
         7.15    -0.0160324     -0.286846      -9.02026    0.00470084    0.00782614   -0.00454649
          7.2    -0.0215134     -0.288054      -9.01585    0.00486613     0.0082555   -0.00465771
         7.25    -0.0270581     -0.289138      -9.01135     0.0050288    0.00868101   -0.00476724
          7.3    -0.0326634     -0.290094      -9.00675    0.00518862    0.00910225   -0.00487512
         7.35    -0.0383264     -0.290921      -9.00206    0.00534538    0.00951881   -0.00498144
          7.4     -0.044044     -0.291614      -8.99728    0.00549887    0.00993028   -0.00508627
         7.45     -0.049813     -0.292173      -8.99241    0.00564886     0.0103362   -0.00518968
          7.5    -0.0556302     -0.292595      -8.98745    0.00579515     0.0107362   -0.00529174
         7.55    -0.0614923     -0.292877      -8.98241    0.00593753     0.0111299   -0.00539254
          7.6     -0.067396     -0.293017      -8.97728    0.00607578     0.0115168   -0.00549215
         7.65    -0.0733378     -0.293014      -8.97208    0.00620971     0.0118966   -0.00559063
          7.7    -0.0793144     -0.292865       -8.9668    0.00633912     0.0122688   -0.00568808
         7.75    -0.0853221     -0.292569      -8.96145    0.00646381     0.0126331   -0.00578456
          7.8    -0.0913575     -0.292123      -8.95602    0.00658359      0.012989   -0.00588014
         7.85    -0.0974168     -0.291527      -8.95053    0.00669827     0.0133362   -0.00597489
          7.9     -0.103497     -0.290778      -8.94497    0.00680767     0.0136743   -0.00606888
         7.95     -0.109593     -0.289876      -8.93935    0.00691161     0.0140029   -0.00616217
            8     -0.115702     -0.288818      -8.93367    0.00700992     0.0143216   -0.00625482
         8.05     -0.121821     -0.287605      -8.92793    0.00710243     0.0146301   -0.00634688
          8.1     -0.127945     -0.286234      -8.92214    0.00718899      0.014928   -0.00643842
         8.15      -0.13407     -0.284704       -8.9163    0.00726944      0.015215   -0.00652946
          8.2     -0.140192     -0.283016      -8.91042    0.00734363     0.0154906   -0.00662005
         8.25     -0.146309     -0.281168      -8.90449    0.00741142     0.0157547   -0.00671023
          8.3     -0.152415     -0.279159      -8.89853    0.00747268     0.0160068   -0.00680001
         8.35     -0.158507      -0.27699      -8.89253    0.00752729     0.0162465   -0.00688941
          8.4      -0.16458     -0.274659       -8.8865    0.00757512     0.0164737   -0.00697844
         8.45     -0.170631     -0.272167      -8.88045    0.00761607      0.016688    -0.0070671
          8.5     -0.176655     -0.269514      -8.87437    0.00765003     0.0168891   -0.00715538
         8.55      -0.18265     -0.266699      -8.86827    0.00767691     0.0170768   -0.00724326
          8.6     -0.188609     -0.263723      -8.86216    0.00769662     0.0172507    -0.0073307
         8.65      -0.19453     -0.260586      -8.85603    0.00770909     0.0174106   -0.00741767
          8.7     -0.200408     -0.257288       -8.8499    0.00771426     0.0175562   -0.00750411
         8.75     -0.206239     -0.253831      -8.84377    0.00771206     0.0176874   -0.00758996
          8.8      -0.21202     -0.250214      -8.83764    0.00770245      0.017804   -0.00767515
         8.85     -0.217745     -0.246439      -8.83152    0.00768539     0.0179056   -0.00775958
          8.9     -0.223411     -0.242506      -8.82541    0.00766085     0.0179923   -0.00784315
         8.95     -0.229014     -0.238417      -8.81931    0.00762882     0.0180637   -0.00792577
            9     -0.234549     -0.234172      -8.81323    0.00758929     0.0181198    -0.0080073
         9.05     -0.240013     -0.229774      -8.80718    0.00754227     0.0181604   -0.00808763
          9.1     -0.245402     -0.225223      -8.80116    0.00748777     0.0181854    -0.0081666
         9.15     -0.250711     -0.220521      -8.79517    0.00742581     0.0181948   -0.00824407
          9.2     -0.255936     -0.215669      -8.78922    0.00735643     0.0181884   -0.00831989
         9.25     -0.261073      -0.21067      -8.78331    0.00727967     0.0181663   -0.00839388
          9.3     -0.266119     -0.205526      -8.77745    0.00719561     0.0181283   -0.00846589
         9.35     -0.271069     -0.200237      -8.77164     0.0071043     0.0180745   -0.00853573
          9.4      -0.27592     -0.194808      -8.76589    0.00700582     0.0180048   -0.00860322
         9.45     -0.280667     -0.189238       -8.7602    0.00690026     0.0179194   -0.00866818
          9.5     -0.285307     -0.183532      -8.75458    0.00678773     0.0178183   -0.00873042
         9.55     -0.289835     -0.177692      -8.74903    0.00666833     0.0177015   -0.00878976
          9.6     -0.294249     -0.171719      -8.74355    0.00654218     0.0175691     -0.008846
         9.65     -0.298544     -0.165617      -8.73816    0.00640942     0.0174212   -0.00889898
          9.7     -0.302716     -0.159389      -8.73285    0.00627018      0.017258   -0.00894849
         9.75     -0.306762     -0.153036      -8.72764    0.00612462     0.0170797   -0.00899438
          9.8     -0.310678     -0.146563      -8.72251    0.00597289     0.0168864   -0.00903648
         9.85     -0.314462     -0.139973      -8.71749    0.00581515     0.0166783   -0.00907461
          9.9     -0.318108     -0.133267      -8.71257    0.00565159     0.0164557   -0.00910862
         9.95     -0.321614     -0.126451      -8.70777    0.00548239     0.0162187   -0.00913836
           10     -0.324976     -0.119526      -8.70307    0.00530774     0.0159677   -0.00916369
        10.05     -0.328191     -0.112497       -8.6985    0.00512783     0.0157029   -0.00918449
