Time (s)            Body0_x (m)     Body0_y (m)     Body0_z (m)     Body1_x (m)     Body1_y (m)     Body1_z (m)     
0.06                0.0000          0.0000          -0.7199         0.0000          -0.0000         -21.2900        
0.12                -0.0000         0.0000          -0.7196         -0.0000         -0.0000         -21.2900        
0.18                -0.0000         0.0000          -0.7192         -0.0000         -0.0000         -21.2899        
0.24                -0.0000         0.0000          -0.7186         -0.0000         -0.0000         -21.2898        
0.30                -0.0000         0.0000          -0.7179         -0.0000         -0.0000         -21.2897        
0.36                -0.0001         0.0000          -0.7170         -0.0000         -0.0000         -21.2896        
0.42                -0.0001         0.0000          -0.7160         -0.0001         -0.0000         -21.2895        
0.48                -0.0001         0.0000          -0.7149         -0.0001         -0.0000         -21.2893        
0.54                -0.0002         0.0000          -0.7136         -0.0001         -0.0000         -21.2891        
0.60                -0.0003         0.0000          -0.7123         -0.0002         -0.0000         -21.2889        
0.66                -0.0004         0.0000          -0.7109         -0.0002         -0.0000         -21.2887        
0.72                -0.0005         0.0000          -0.7095         -0.0003         -0.0000         -21.2884        
0.78                -0.0007         0.0000          -0.7080         -0.0004         -0.0000         -21.2881        
0.84                -0.0008         0.0000          -0.7064         -0.0005         -0.0000         -21.2878        
0.90                -0.0010         0.0000          -0.7048         -0.0006         -0.0000         -21.2875        
0.96                -0.0013         0.0000          -0.7032         -0.0008         -0.0000         -21.2871        
1.02                -0.0015         0.0000          -0.7016         -0.0009         -0.0000         -21.2868        
1.08                -0.0018         0.0000          -0.7000         -0.0011         -0.0000         -21.2864        
1.14                -0.0021         0.0000          -0.6984         -0.0013         -0.0000         -21.2859        
1.20                -0.0025         0.0000          -0.6969         -0.0016         -0.0000         -21.2855        
1.26                -0.0028         0.0000          -0.6954         -0.0018         -0.0000         -21.2850        
1.32                -0.0033         0.0000          -0.6939         -0.0021         -0.0000         -21.2846        
1.38                -0.0037         0.0000          -0.6925         -0.0024         -0.0000         -21.2841        
1.44                -0.0042         0.0000          -0.6912         -0.0027         -0.0000         -21.2835        
1.50                -0.0048         0.0000          -0.6899         -0.0030         -0.0000         -21.2830        
1.56                -0.0054         0.0000          -0.6887         -0.0034         -0.0000         -21.2825        
1.62                -0.0060         0.0000          -0.6876         -0.0038         -0.0000         -21.2819        
1.68                -0.0066         0.0000          -0.6866         -0.0042         -0.0000         -21.2814        
1.74                -0.0074         0.0000          -0.6857         -0.0047         -0.0000         -21.2808        
1.80                -0.0081         0.0000          -0.6850         -0.0052         -0.0000         -21.2802        
1.86                -0.0089         0.0000          -0.6843         -0.0057         -0.0000         -21.2796        
1.92                -0.0098         0.0000          -0.6837         -0.0063         -0.0000         -21.2790        
1.98                -0.0107         0.0000          -0.6833         -0.0069         -0.0000         -21.2784        
2.04                -0.0116         0.0000          -0.6830         -0.0075         -0.0000         -21.2779        
2.10                -0.0126         0.0000          -0.6828         -0.0081         -0.0000         -21.2773        
2.16                -0.0136         0.0000          -0.6827         -0.0088         -0.0000         -21.2767        
2.22                -0.0147         0.0000          -0.6827         -0.0095         -0.0000         -21.2761        
2.28                -0.0158         0.0000          -0.6829         -0.0103         -0.0000         -21.2755        
2.34                -0.0170         0.0000          -0.6832         -0.0111         -0.0000         -21.2749        
2.40                -0.0183         0.0000          -0.6836         -0.0119         -0.0000         -21.2744        
2.46                -0.0195         0.0000          -0.6842         -0.0128         -0.0000         -21.2738        
2.52                -0.0209         0.0000          -0.6848         -0.0137         -0.0000         -21.2733        
2.58                -0.0223         0.0000          -0.6856         -0.0146         -0.0000         -21.2727        
2.64                -0.0237         0.0000          -0.6865         -0.0156         -0.0000         -21.2722        
2.70                -0.0252         0.0000          -0.6874         -0.0166         -0.0000         -21.2717        
2.76                -0.0267         0.0000          -0.6885         -0.0176         -0.0000         -21.2712        
2.82                -0.0283         0.0000          -0.6897         -0.0187         -0.0000         -21.2708        
2.88                -0.0299         0.0000          -0.6910         -0.0198         -0.0000         -21.2703        
2.94                -0.0316         0.0000          -0.6924         -0.0210         -0.0000         -21.2699        
3.00                -0.0333         0.0000          -0.6939         -0.0221         -0.0000         -21.2695        
3.06                -0.0351         0.0000          -0.6954         -0.0234         -0.0000         -21.2691        
3.12                -0.0369         0.0000          -0.6970         -0.0246         -0.0000         -21.2687        
3.18                -0.0388         0.0000          -0.6987         -0.0259         -0.0000         -21.2684        
3.24                -0.0407         0.0000          -0.7005         -0.0273         -0.0000         -21.2681        
3.30                -0.0426         0.0000          -0.7023         -0.0286         -0.0000         -21.2678        
3.36                -0.0446         0.0000          -0.7041         -0.0301         -0.0000         -21.2676        
3.42                -0.0467         0.0000          -0.7060         -0.0315         -0.0000         -21.2673        
3.48                -0.0487         0.0000          -0.7080         -0.0330         -0.0000         -21.2671        
3.54                -0.0509         0.0000          -0.7100         -0.0345         -0.0000         -21.2670        
3.60                -0.0530         0.0000          -0.7120         -0.0360         -0.0000         -21.2668        
3.66                -0.0552         0.0000          -0.7141         -0.0376         -0.0000         -21.2667        
3.72                -0.0575         0.0000          -0.7161         -0.0392         -0.0000         -21.2666        
3.78                -0.0598         0.0000          -0.7182         -0.0409         -0.0000         -21.2666        
3.84                -0.0621         0.0000          -0.7203         -0.0426         -0.0000         -21.2666        
3.90                -0.0644         0.0000          -0.7224         -0.0443         -0.0000         -21.2666        
3.96                -0.0668         0.0000          -0.7245         -0.0460         0.0000          -21.2667        
4.02                -0.0692         0.0000          -0.7266         -0.0478         0.0000          -21.2667        
4.08                -0.0717         0.0000          -0.7287         -0.0496         0.0000          -21.2668        
4.14                -0.0742         0.0000          -0.7307         -0.0515         0.0000          -21.2670        
4.20                -0.0767         0.0000          -0.7328         -0.0534         0.0000          -21.2672        
4.26                -0.0792         0.0000          -0.7348         -0.0553         0.0000          -21.2674        
4.32                -0.0818         0.0000          -0.7368         -0.0572         0.0000          -21.2676        
4.38                -0.0844         0.0000          -0.7388         -0.0591         0.0000          -21.2679        
4.44                -0.0870         0.0000          -0.7408         -0.0611         0.0000          -21.2682        
4.50                -0.0896         0.0000          -0.7427         -0.0631         0.0000          -21.2685        
4.56                -0.0922         0.0000          -0.7445         -0.0652         0.0000          -21.2689        
4.62                -0.0949         0.0000          -0.7464         -0.0672         0.0000          -21.2693        
4.68                -0.0976         0.0000          -0.7482         -0.0693         0.0000          -21.2697        
4.74                -0.1003         0.0000          -0.7499         -0.0714         0.0000          -21.2701        
4.80                -0.1030         0.0000          -0.7516         -0.0736         0.0000          -21.2706        
4.86                -0.1057         0.0000          -0.7533         -0.0757         0.0000          -21.2711        
4.92                -0.1084         0.0000          -0.7549         -0.0779         0.0000          -21.2716        
4.98                -0.1112         0.0000          -0.7564         -0.0801         0.0000          -21.2722        
5.04                -0.1139         0.0000          -0.7579         -0.0823         0.0000          -21.2728        
5.10                -0.1166         0.0000          -0.7593         -0.0845         0.0000          -21.2734        
5.16                -0.1194         -0.0000         -0.7607         -0.0867         0.0000          -21.2740        
5.22                -0.1221         -0.0000         -0.7620         -0.0890         0.0000          -21.2747        
5.28                -0.1249         -0.0000         -0.7632         -0.0913         0.0000          -21.2754        
5.34                -0.1276         -0.0000         -0.7644         -0.0935         0.0000          -21.2761        
5.40                -0.1303         -0.0000         -0.7656         -0.0958         0.0000          -21.2768        
5.46                -0.1330         -0.0000         -0.7666         -0.0981         0.0000          -21.2775        
5.52                -0.1357         -0.0000         -0.7676         -0.1005         0.0000          -21.2783        
5.58                -0.1384         -0.0000         -0.7685         -0.1028         0.0000          -21.2791        
5.64                -0.1411         -0.0000         -0.7694         -0.1051         0.0000          -21.2799        
5.70                -0.1438         -0.0000         -0.7702         -0.1075         0.0000          -21.2807        
5.76                -0.1465         -0.0000         -0.7709         -0.1098         0.0000          -21.2815        
5.82                -0.1491         -0.0000         -0.7715         -0.1122         0.0000          -21.2823        
5.88                -0.1517         -0.0000         -0.7721         -0.1145         0.0000          -21.2832        
5.94                -0.1543         -0.0000         -0.7726         -0.1169         0.0000          -21.2841        
6.00                -0.1569         -0.0000         -0.7731         -0.1192         0.0000          -21.2849        
6.06                -0.1594         -0.0000         -0.7735         -0.1216         0.0000          -21.2858        
6.12                -0.1619         -0.0000         -0.7738         -0.1239         0.0000          -21.2867        
6.18                -0.1644         -0.0000         -0.7740         -0.1263         0.0000          -21.2876        
6.24                -0.1668         -0.0000         -0.7742         -0.1287         0.0000          -21.2886        
6.30                -0.1693         -0.0000         -0.7743         -0.1310         0.0000          -21.2895        
6.36                -0.1716         -0.0000         -0.7743         -0.1333         0.0000          -21.2904        
6.42                -0.1740         -0.0000         -0.7743         -0.1357         0.0000          -21.2913        
6.48                -0.1763         -0.0000         -0.7742         -0.1380         0.0000          -21.2923        
6.54                -0.1786         -0.0000         -0.7740         -0.1404         0.0000          -21.2932        
6.60                -0.1808         -0.0000         -0.7738         -0.1427         0.0000          -21.2941        
6.66                -0.1830         -0.0000         -0.7735         -0.1450         0.0000          -21.2951        
6.72                -0.1851         -0.0000         -0.7731         -0.1473         0.0000          -21.2960        
6.78                -0.1872         -0.0000         -0.7727         -0.1496         0.0000          -21.2969        
6.84                -0.1893         -0.0000         -0.7722         -0.1518         0.0000          -21.2979        
6.90                -0.1913         -0.0000         -0.7716         -0.1541         0.0000          -21.2988        
6.96                -0.1932         -0.0000         -0.7710         -0.1563         0.0000          -21.2997        
7.02                -0.1951         -0.0000         -0.7703         -0.1586         0.0000          -21.3006        
7.08                -0.1970         -0.0000         -0.7695         -0.1608         0.0000          -21.3015        
7.14                -0.1988         -0.0000         -0.7687         -0.1630         0.0000          -21.3024        
7.20                -0.2005         -0.0000         -0.7679         -0.1652         0.0000          -21.3033        
7.26                -0.2022         -0.0000         -0.7669         -0.1673         0.0000          -21.3042        
7.32                -0.2039         -0.0000         -0.7660         -0.1695         0.0000          -21.3050        
7.38                -0.2055         -0.0000         -0.7649         -0.1716         0.0000          -21.3059        
7.44                -0.2070         -0.0000         -0.7638         -0.1737         0.0000          -21.3067        
7.50                -0.2085         -0.0000         -0.7627         -0.1758         0.0000          -21.3075        
7.56                -0.2099         -0.0000         -0.7615         -0.1778         0.0000          -21.3084        
7.62                -0.2113         -0.0000         -0.7603         -0.1799         0.0000          -21.3091        
7.68                -0.2126         -0.0000         -0.7590         -0.1819         0.0000          -21.3099        
7.74                -0.2138         -0.0000         -0.7576         -0.1839         0.0000          -21.3107        
7.80                -0.2150         -0.0000         -0.7562         -0.1859         0.0000          -21.3114        
7.86                -0.2161         -0.0000         -0.7548         -0.1878         0.0000          -21.3121        
7.92                -0.2172         -0.0000         -0.7533         -0.1897         0.0000          -21.3128        
7.98                -0.2182         -0.0000         -0.7518         -0.1916         0.0000          -21.3135        
8.04                -0.2192         -0.0000         -0.7503         -0.1935         0.0000          -21.3142        
8.10                -0.2201         -0.0000         -0.7487         -0.1953         0.0000          -21.3148        
8.16                -0.2209         -0.0000         -0.7471         -0.1971         0.0000          -21.3154        
8.22                -0.2217         -0.0000         -0.7454         -0.1989         0.0000          -21.3160        
8.28                -0.2224         -0.0000         -0.7438         -0.2007         0.0000          -21.3166        
8.34                -0.2230         -0.0000         -0.7421         -0.2024         0.0000          -21.3171        
8.40                -0.2236         -0.0000         -0.7403         -0.2041         0.0000          -21.3176        
8.46                -0.2242         -0.0000         -0.7386         -0.2058         0.0000          -21.3181        
8.52                -0.2247         -0.0000         -0.7368         -0.2074         0.0000          -21.3186        
8.58                -0.2251         -0.0000         -0.7350         -0.2090         0.0000          -21.3190        
8.64                -0.2255         -0.0000         -0.7332         -0.2106         0.0000          -21.3194        
8.70                -0.2258         -0.0000         -0.7313         -0.2122         0.0000          -21.3198        
8.76                -0.2260         -0.0000         -0.7295         -0.2137         0.0000          -21.3201        
8.82                -0.2263         -0.0000         -0.7276         -0.2152         0.0000          -21.3204        
8.88                -0.2264         -0.0000         -0.7258         -0.2167         0.0000          -21.3207        
8.94                -0.2265         -0.0000         -0.7239         -0.2181         0.0000          -21.3210        
9.00                -0.2266         -0.0000         -0.7220         -0.2195         0.0000          -21.3212        
9.06                -0.2266         -0.0000         -0.7201         -0.2209         0.0000          -21.3214        
9.12                -0.2265         -0.0000         -0.7182         -0.2223         0.0000          -21.3216        
9.18                -0.2264         -0.0000         -0.7164         -0.2236         0.0000          -21.3218        
9.24                -0.2263         -0.0000         -0.7145         -0.2249         0.0000          -21.3219        
9.30                -0.2261         -0.0000         -0.7126         -0.2262         0.0000          -21.3220        
9.36                -0.2259         -0.0000         -0.7108         -0.2274         0.0000          -21.3220        
9.42                -0.2257         -0.0000         -0.7089         -0.2286         0.0000          -21.3221        
9.48                -0.2254         -0.0000         -0.7071         -0.2298         0.0000          -21.3220        
9.54                -0.2250         -0.0000         -0.7053         -0.2310         0.0000          -21.3220        
9.60                -0.2246         -0.0000         -0.7035         -0.2321         0.0000          -21.3220        
9.66                -0.2242         -0.0000         -0.7017         -0.2332         0.0000          -21.3219        
9.72                -0.2238         -0.0000         -0.6999         -0.2343         0.0000          -21.3217        
9.78                -0.2233         -0.0000         -0.6982         -0.2354         0.0000          -21.3216        
9.84                -0.2228         -0.0000         -0.6965         -0.2364         0.0000          -21.3214        
9.90                -0.2222         -0.0000         -0.6948         -0.2374         0.0000          -21.3212        
9.96                -0.2216         -0.0000         -0.6931         -0.2384         0.0000          -21.3210        
10.02               -0.2210         -0.0000         -0.6914         -0.2393         0.0000          -21.3207        
10.08               -0.2204         -0.0000         -0.6898         -0.2403         0.0000          -21.3204        
10.14               -0.2197         -0.0000         -0.6882         -0.2412         0.0000          -21.3201        
